#G20-15                                                      
#                                                            
#  Heap-Lindler STIS                                         
# wavelength  ABmag  band
   2950.00   12.711  2.74
   2952.74   12.652  2.74
   2955.48   12.650  2.74
   2958.22   12.625  2.74
   2960.96   12.608  2.74
   2963.70   12.612  2.74
   2966.44   12.728  2.74
   2969.18   12.728  2.74
   2971.92   12.684  2.74
   2974.66   12.617  2.74
   2977.40   12.563  2.74
   2980.14   12.612  2.74
   2982.88   12.700  2.74
   2985.62   12.755  2.74
   2988.36   12.644  2.74
   2991.10   12.233  2.74
   2993.84   12.203  2.74
   2996.58   12.602  2.74
   2999.32   12.642  2.74
   3002.06   12.707  2.74
   3004.80   12.640  2.74
   3007.54   12.592  2.74
   3010.28   12.579  2.74
   3013.02   12.576  2.74
   3015.76   12.608  2.74
   3018.50   12.699  2.74
   3021.24   12.717  2.74
   3023.98   12.563  2.74
   3026.72   12.549  2.74
   3029.46   12.511  2.74
   3032.20   12.508  2.74
   3034.94   12.491  2.74
   3037.68   12.517  2.74
   3040.42   12.500  2.74
   3043.16   12.520  2.74
   3045.90   12.496  2.74
   3048.64   12.508  2.74
   3051.38   12.486  2.74
   3054.12   12.516  2.74
   3056.86   12.560  2.74
   3059.60   12.598  2.74
   3062.34   12.587  2.74
   3065.08   12.594  2.74
   3067.82   12.653  2.74
   3070.56   12.573  2.74
   3073.30   12.506  2.74
   3076.04   12.516  2.74
   3078.78   12.517  2.74
   3081.52   12.477  2.74
   3084.26   12.463  2.74
   3087.00   12.521  2.74
   3089.74   12.508  2.74
   3092.48   12.566  2.74
   3095.22   12.616  2.74
   3097.96   12.638  2.74
   3100.70   12.610  2.74
   3103.44   12.495  2.74
   3106.18   12.445  2.74
   3108.92   12.445  2.74
   3111.66   12.456  2.74
   3114.40   12.441  2.74
   3117.14   12.521  2.74
   3119.88   12.538  2.74
   3122.62   12.515  2.74
   3125.36   12.504  2.74
   3128.10   12.551  2.74
   3130.84   12.506  2.74
   3133.58   12.429  2.74
   3136.32   12.399  2.74
   3139.06   12.440  2.74
   3141.80   12.489  2.74
   3144.54   12.519  2.74
   3147.28   12.467  2.74
   3150.02   12.421  2.74
   3152.76   12.442  2.74
   3155.50   12.447  2.74
   3158.24   12.506  2.74
   3160.98   12.529  2.74
   3163.72   12.439  2.74
   3166.46   12.394  2.74
   3169.20   12.370  2.74
   3171.94   12.314  2.74
   3174.68   12.313  2.74
   3177.42   12.382  2.74
   3180.16   12.417  2.74
   3182.90   12.420  2.74
   3185.64   12.423  2.74
   3188.38   12.385  2.74
   3191.12   12.416  2.74
   3193.86   12.402  2.74
   3196.60   12.355  2.74
   3199.34   12.336  2.74
   3202.08   12.316  2.74
   3204.82   12.280  2.74
   3207.56   12.286  2.74
   3210.30   12.368  2.74
   3213.04   12.388  2.74
   3215.78   12.349  2.74
   3218.52   12.311  2.74
   3221.26   12.339  2.74
   3224.00   12.374  2.74
   3226.74   12.386  2.74
   3229.48   12.375  2.74
   3232.22   12.376  2.74
   3234.96   12.430  2.74
   3237.70   12.390  2.74
   3240.44   12.298  2.74
   3243.18   12.284  2.74
   3245.92   12.289  2.74
   3248.66   12.304  2.74
   3251.40   12.318  2.74
   3254.14   12.284  2.74
   3256.88   12.235  2.74
   3259.62   12.187  2.74
   3262.36   12.194  2.74
   3265.10   12.213  2.74
   3267.84   12.216  2.74
   3270.58   12.234  2.74
   3273.32   12.224  2.74
   3276.06   12.237  2.74
   3278.80   12.227  2.74
   3281.54   12.195  2.74
   3284.28   12.206  2.74
   3287.02   12.211  2.74
   3289.76   12.201  2.74
   3292.50   12.148  2.74
   3295.24   12.123  2.74
   3297.98   12.122  2.74
   3300.72   12.127  2.74
   3303.46   12.119  2.74
   3306.20   12.154  2.74
   3308.94   12.212  2.74
   3311.68   12.134  2.74
   3314.42   12.125  2.74
   3317.16   12.150  2.74
   3319.90   12.147  2.74
   3322.64   12.191  2.74
   3325.38   12.162  2.74
   3328.12   12.155  2.74
   3330.86   12.167  2.74
   3333.60   12.133  2.74
   3336.34   12.182  2.74
   3339.08   12.232  2.74
   3341.82   12.166  2.74
   3344.56   12.114  2.74
   3347.30   12.140  2.74
   3350.04   12.153  2.74
   3352.78   12.139  2.74
   3355.52   12.108  2.74
   3358.26   12.131  2.74
   3361.00   12.183  2.74
   3363.74   12.145  2.74
   3366.48   12.112  2.74
   3369.22   12.139  2.74
   3371.96   12.165  2.74
   3374.70   12.141  2.74
   3377.44   12.098  2.74
   3380.18   12.137  2.74
   3382.92   12.166  2.74
   3385.66   12.117  2.74
   3388.40   12.078  2.74
   3391.14   12.086  2.74
   3393.88   12.082  2.74
   3396.62   12.045  2.74
   3399.36   12.026  2.74
   3402.10   12.069  2.74
   3404.84   12.089  2.74
   3407.58   12.104  2.74
   3410.32   12.126  2.74
   3413.06   12.122  2.74
   3415.80   12.091  2.74
   3418.54   12.073  2.74
   3421.28   12.075  2.74
   3424.02   12.075  2.74
   3426.76   12.091  2.74
   3429.50   12.017  2.74
   3432.24   12.016  2.74
   3434.98   12.012  2.74
   3437.72   12.021  2.74
   3440.46   12.108  2.74
   3443.20   12.122  2.74
   3445.94   12.076  2.74
   3448.68   12.029  2.74
   3451.42   12.037  2.74
   3454.16   12.036  2.74
   3456.90   12.019  2.74
   3459.64   12.027  2.74
   3462.38   12.020  2.74
   3465.12   12.018  2.74
   3467.86   11.997  2.74
   3470.60   12.007  2.74
   3473.34   12.038  2.74
   3476.08   12.066  2.74
   3478.82   12.020  2.74
   3481.56   12.001  2.74
   3484.30   12.045  2.74
   3487.04   12.021  2.74
   3489.78   12.032  2.74
   3492.52   12.038  2.74
   3495.26   12.037  2.74
   3498.00   12.021  2.74
   3500.74   11.963  2.74
   3503.48   11.972  2.74
   3506.22   11.980  2.74
   3508.96   11.955  2.74
   3511.70   11.969  2.74
   3514.44   11.967  2.74
   3517.18   11.948  2.74
   3519.92   11.966  2.74
   3522.66   12.029  2.74
   3525.40   12.020  2.74
   3528.14   12.012  2.74
   3530.88   11.975  2.74
   3533.62   11.943  2.74
   3536.36   11.932  2.74
   3539.10   11.913  2.74
   3541.84   11.945  2.74
   3544.58   11.931  2.74
   3547.32   11.911  2.74
   3550.06   11.911  2.74
   3552.80   11.894  2.74
   3555.54   11.915  2.74
   3558.28   11.927  2.74
   3561.02   11.905  2.74
   3563.76   11.915  2.74
   3566.50   11.992  2.74
   3569.24   12.006  2.74
   3571.98   11.975  2.74
   3574.72   11.968  2.74
   3577.46   11.933  2.74
   3580.20   11.957  2.74
   3582.94   11.979  2.74
   3585.68   12.008  2.74
   3588.42   11.995  2.74
   3591.16   11.924  2.74
   3593.90   11.924  2.74
   3596.64   11.904  2.74
   3599.38   11.886  2.74
   3602.12   11.891  2.74
   3604.86   11.909  2.74
   3607.60   11.921  2.74
   3610.34   11.930  2.74
   3613.08   11.914  2.74
   3615.82   11.904  2.74
   3618.56   11.919  2.74
   3621.30   11.916  2.74
   3624.04   11.852  2.74
   3626.78   11.855  2.74
   3629.52   11.863  2.74
   3632.26   11.901  2.74
   3635.00   11.896  2.74
   3637.74   11.845  2.74
   3640.48   11.870  2.74
   3643.22   11.862  2.74
   3645.96   11.879  2.74
   3648.70   11.856  2.74
   3651.44   11.822  2.74
   3654.18   11.801  2.74
   3656.92   11.799  2.74
   3659.66   11.821  2.74
   3662.40   11.794  2.74
   3665.14   11.757  2.74
   3667.88   11.797  2.74
   3670.62   11.796  2.74
   3673.36   11.799  2.74
   3676.10   11.819  2.74
   3678.84   11.829  2.74
   3681.58   11.838  2.74
   3684.32   11.816  2.74
   3687.06   11.816  2.74
   3689.80   11.803  2.74
   3692.54   11.775  2.74
   3695.28   11.753  2.74
   3698.02   11.762  2.74
   3700.76   11.778  2.74
   3703.50   11.795  2.74
   3706.24   11.838  2.74
   3708.98   11.823  2.74
   3711.72   11.780  2.74
   3714.46   11.750  2.74
   3717.20   11.729  2.74
   3719.94   11.784  2.74
   3722.68   11.860  2.74
   3725.42   11.750  2.74
   3728.16   11.695  2.74
   3730.90   11.743  2.74
   3733.64   11.844  2.74
   3736.38   11.911  2.74
   3739.12   11.766  2.74
   3741.86   11.656  2.74
   3744.60   11.727  2.74
   3747.34   11.828  2.74
   3750.08   11.908  2.74
   3752.82   11.826  2.74
   3755.56   11.652  2.74
   3758.30   11.625  2.74
   3761.04   11.607  2.74
   3763.78   11.612  2.74
   3766.52   11.661  2.74
   3769.26   11.750  2.74
   3772.00   11.804  2.74
   3774.74   11.654  2.74
   3777.48   11.551  2.74
   3780.22   11.490  2.74
   3782.96   11.468  2.74
   3785.70   11.483  2.74
   3788.44   11.532  2.74
   3791.18   11.538  2.74
   3793.92   11.622  2.74
   3796.66   11.770  2.74
   3799.40   11.795  2.74
   3802.14   11.634  2.74
   3804.88   11.523  2.74
   3807.62   11.487  2.74
   3810.36   11.454  2.74
   3813.10   11.462  2.74
   3815.84   11.507  2.74
   3818.58   11.501  2.74
   3821.32   11.496  2.74
   3824.06   11.514  2.74
   3826.80   11.589  2.74
   3829.54   11.635  2.74
   3832.28   11.729  2.74
   3835.02   11.894  2.74
   3837.76   11.863  2.74
   3840.50   11.677  2.74
   3843.24   11.512  2.74
   3845.98   11.432  2.74
   3848.72   11.437  2.74
   3851.46   11.409  2.74
   3854.20   11.376  2.74
   3856.94   11.412  2.74
   3859.68   11.438  2.74
   3862.42   11.408  2.74
   3865.16   11.383  2.74
   3867.90   11.372  2.74
   3870.64   11.336  2.74
   3873.38   11.152  2.74
   3876.12   11.413  2.74
   3878.86   11.446  2.74
   3881.60   11.449  2.74
   3884.34   11.531  2.74
   3887.08   11.682  2.74
   3889.82   11.809  2.74
   3892.56   11.644  2.74
   3895.30   11.515  2.74
   3898.04   11.467  2.74
   3900.78   11.455  2.74
   3903.52   11.413  2.74
   3906.26   11.439  2.74
   3909.00   11.384  2.74
   3911.74   11.342  2.74
   3914.48   11.317  2.74
   3917.22   11.358  2.74
   3919.96   11.387  2.74
   3922.70   11.398  2.74
   3925.44   11.414  2.74
   3928.18   11.545  2.74
   3930.92   11.844  2.74
   3933.66   12.245  2.74
   3936.40   12.014  2.74
   3939.14   11.579  2.74
   3941.88   11.427  2.74
   3944.62   11.399  2.74
   3947.36   11.361  2.74
   3950.10   11.351  2.74
   3952.84   11.368  2.74
   3955.58   11.356  2.74
   3958.32   11.395  2.74
   3961.06   11.422  2.74
   3963.80   11.578  2.74
   3966.54   11.884  2.74
   3969.28   12.228  2.74
   3972.02   11.850  2.74
   3974.76   11.563  2.74
   3977.50   11.423  2.74
   3980.24   11.346  2.74
   3982.98   11.328  2.74
   3985.72   11.295  2.74
   3988.46   11.263  2.74
   3991.20   11.289  2.74
   3993.94   11.260  2.74
   3996.68   11.287  2.74
   3999.42   11.266  2.74
   4002.16   11.248  2.74
   4004.90   11.272  2.74
   4007.64   11.270  2.74
   4010.38   11.237  2.74
   4013.12   11.231  2.74
   4015.86   11.223  2.74
   4018.60   11.222  2.74
   4021.34   11.220  2.74
   4024.08   11.212  2.74
   4026.82   11.222  2.74
   4029.56   11.215  2.74
   4032.30   11.263  2.74
   4035.04   11.250  2.74
   4037.78   11.203  2.74
   4040.52   11.202  2.74
   4043.26   11.219  2.74
   4046.00   11.238  2.74
   4048.74   11.209  2.74
   4051.48   11.185  2.74
   4054.22   11.196  2.74
   4056.96   11.211  2.74
   4059.70   11.199  2.74
   4062.44   11.237  2.74
   4065.18   11.226  2.74
   4067.92   11.227  2.74
   4070.66   11.212  2.74
   4073.40   11.226  2.74
   4076.14   11.242  2.74
   4078.88   11.229  2.74
   4081.62   11.221  2.74
   4084.36   11.217  2.74
   4087.10   11.221  2.74
   4089.84   11.222  2.74
   4092.58   11.240  2.74
   4095.32   11.309  2.74
   4098.06   11.404  2.74
   4100.80   11.546  2.74
   4103.54   11.560  2.74
   4106.28   11.363  2.74
   4109.02   11.258  2.74
   4111.76   11.254  2.74
   4114.50   11.207  2.74
   4117.24   11.198  2.74
   4119.98   11.205  2.74
   4122.72   11.183  2.74
   4125.46   11.170  2.74
   4128.20   11.173  2.74
   4130.94   11.174  2.74
   4133.68   11.188  2.74
   4136.42   11.186  2.74
   4139.16   11.136  2.74
   4141.90   11.144  2.74
   4144.64   11.179  2.74
   4147.38   11.157  2.74
   4150.12   11.153  2.74
   4152.86   11.168  2.74
   4155.60   11.160  2.74
   4158.34   11.149  2.74
   4161.08   11.134  2.74
   4163.82   11.136  2.74
   4166.56   11.139  2.74
   4169.30   11.155  2.74
   4172.04   11.168  2.74
   4174.78   11.177  2.74
   4177.52   11.168  2.74
   4180.26   11.145  2.74
   4183.00   11.152  2.74
   4185.74   11.145  2.74
   4188.48   11.156  2.74
   4191.22   11.162  2.74
   4193.96   11.136  2.74
   4196.70   11.145  2.74
   4199.44   11.153  2.74
   4202.18   11.143  2.74
   4204.92   11.143  2.74
   4207.66   11.124  2.74
   4210.40   11.115  2.74
   4213.14   11.122  2.74
   4215.88   11.155  2.74
   4218.62   11.155  2.74
   4221.36   11.136  2.74
   4224.10   11.147  2.74
   4226.84   11.196  2.74
   4229.58   11.153  2.74
   4232.32   11.133  2.74
   4235.06   11.135  2.74
   4237.80   11.132  2.74
   4240.54   11.123  2.74
   4243.28   11.113  2.74
   4246.02   11.133  2.74
   4248.76   11.138  2.74
   4251.50   11.136  2.74
   4254.24   11.089  2.74
   4256.98   11.110  2.74
   4259.72   11.116  2.74
   4262.46   11.095  2.74
   4265.20   11.112  2.74
   4267.94   11.093  2.74
   4270.68   11.134  2.74
   4273.42   11.124  2.74
   4276.16   11.102  2.74
   4278.90   11.099  2.74
   4281.64   11.105  2.74
   4284.38   11.091  2.74
   4287.12   11.120  2.74
   4289.86   11.103  2.74
   4292.60   11.139  2.74
   4295.34   11.128  2.74
   4298.08   11.163  2.74
   4300.82   11.213  2.74
   4303.56   11.202  2.74
   4306.30   11.181  2.74
   4309.04   11.185  2.74
   4311.78   11.158  2.74
   4314.52   11.130  2.74
   4317.26   11.098  2.74
   4320.00   11.096  2.74
   4322.74   11.112  2.74
   4325.48   11.144  2.74
   4328.22   11.137  2.74
   4330.96   11.120  2.74
   4333.70   11.155  2.74
   4336.44   11.240  2.74
   4339.18   11.413  2.74
   4341.92   11.422  2.74
   4344.66   11.237  2.74
   4347.40   11.153  2.74
   4350.14   11.116  2.74
   4352.88   11.120  2.74
   4355.62   11.063  2.74
   4358.36   11.048  2.74
   4361.10   11.042  2.74
   4363.84   11.030  2.74
   4366.58   11.039  2.74
   4369.32   11.028  2.74
   4372.06   11.058  2.74
   4374.80   11.059  2.74
   4377.54   11.032  2.74
   4380.28   11.027  2.74
   4383.02   11.063  2.74
   4385.76   11.060  2.74
   4388.50   11.035  2.74
   4391.24   11.032  2.74
   4393.98   11.033  2.74
   4396.72   11.015  2.74
   4399.46   11.035  2.74
   4402.20   11.040  2.74
   4404.94   11.040  2.74
   4407.68   11.029  2.74
   4410.42   10.994  2.74
   4413.16   11.010  2.74
   4415.90   11.036  2.74
   4418.64   11.030  2.74
   4421.38   11.013  2.74
   4424.12   11.007  2.74
   4426.86   11.034  2.74
   4429.60   11.019  2.74
   4432.34   11.011  2.74
   4435.08   11.026  2.74
   4437.82   10.996  2.74
   4440.56   10.998  2.74
   4443.30   11.002  2.74
   4446.04   10.986  2.74
   4448.78   10.995  2.74
   4451.52   10.990  2.74
   4454.26   11.003  2.74
   4457.00   11.009  2.74
   4459.74   10.983  2.74
   4462.48   10.999  2.74
   4465.22   10.996  2.74
   4467.96   10.998  2.74
   4470.70   10.990  2.74
   4473.44   10.983  2.74
   4476.18   10.974  2.74
   4478.92   10.975  2.74
   4481.66   10.989  2.74
   4484.40   10.967  2.74
   4487.14   10.955  2.74
   4489.88   10.965  2.74
   4492.62   10.968  2.74
   4495.36   10.981  2.74
   4498.10   10.969  2.74
   4500.84   10.958  2.74
   4503.58   10.952  2.74
   4506.32   10.957  2.74
   4509.06   10.965  2.74
   4511.80   10.945  2.74
   4514.54   10.950  2.74
   4517.28   10.957  2.74
   4520.02   10.950  2.74
   4522.76   10.966  2.74
   4525.50   10.956  2.74
   4528.24   10.969  2.74
   4530.98   10.974  2.74
   4533.72   10.982  2.74
   4536.46   10.967  2.74
   4539.20   10.947  2.74
   4541.94   10.936  2.74
   4544.68   10.935  2.74
   4547.42   10.948  2.74
   4550.16   10.967  2.74
   4552.90   10.956  2.74
   4555.64   10.954  2.74
   4558.38   10.940  2.74
   4561.12   10.925  2.74
   4563.86   10.925  2.74
   4566.60   10.931  2.74
   4569.34   10.923  2.74
   4572.08   10.927  2.74
   4574.82   10.920  2.74
   4577.56   10.929  2.74
   4580.30   10.925  2.74
   4583.04   10.920  2.74
   4585.78   10.927  2.74
   4588.52   10.920  2.74
   4591.26   10.922  2.74
   4594.00   10.909  2.74
   4596.74   10.910  2.74
   4599.48   10.908  2.74
   4602.22   10.908  2.74
   4604.96   10.910  2.74
   4607.70   10.899  2.74
   4610.44   10.892  2.74
   4613.18   10.898  2.74
   4615.92   10.897  2.74
   4618.66   10.890  2.74
   4621.40   10.901  2.74
   4624.14   10.889  2.74
   4626.88   10.888  2.74
   4629.62   10.887  2.74
   4632.36   10.881  2.74
   4635.10   10.883  2.74
   4637.84   10.889  2.74
   4640.58   10.881  2.74
   4643.32   10.881  2.74
   4646.06   10.885  2.74
   4648.80   10.882  2.74
   4651.54   10.874  2.74
   4654.28   10.882  2.74
   4657.02   10.890  2.74
   4659.76   10.884  2.74
   4662.50   10.866  2.74
   4665.24   10.872  2.74
   4667.98   10.883  2.74
   4670.72   10.875  2.74
   4673.46   10.872  2.74
   4676.20   10.869  2.74
   4678.94   10.875  2.74
   4681.68   10.865  2.74
   4684.42   10.857  2.74
   4687.16   10.861  2.74
   4689.90   10.856  2.74
   4692.64   10.848  2.74
   4695.38   10.860  2.74
   4698.12   10.873  2.74
   4700.86   10.874  2.74
   4703.60   10.868  2.74
   4706.34   10.862  2.74
   4709.08   10.868  2.74
   4711.82   10.852  2.74
   4714.56   10.846  2.74
   4717.30   10.851  2.74
   4720.04   10.856  2.74
   4722.78   10.855  2.74
   4725.52   10.855  2.74
   4728.26   10.850  2.74
   4731.00   10.830  2.74
   4733.74   10.840  2.74
   4736.48   10.849  2.74
   4739.22   10.853  2.74
   4741.96   10.843  2.74
   4744.70   10.845  2.74
   4747.44   10.842  2.74
   4750.18   10.842  2.74
   4752.92   10.853  2.74
   4755.66   10.838  2.74
   4758.40   10.852  2.74
   4761.14   10.866  2.74
   4763.88   10.865  2.74
   4766.62   10.835  2.74
   4769.36   10.825  2.74
   4772.10   10.830  2.74
   4774.84   10.843  2.74
   4777.58   10.842  2.74
   4780.32   10.829  2.74
   4783.06   10.845  2.74
   4785.80   10.839  2.74
   4788.54   10.814  2.74
   4791.28   10.824  2.74
   4794.02   10.814  2.74
   4796.76   10.803  2.74
   4799.50   10.818  2.74
   4802.24   10.820  2.74
   4804.98   10.829  2.74
   4807.72   10.832  2.74
   4810.46   10.820  2.74
   4813.20   10.806  2.74
   4815.94   10.811  2.74
   4818.68   10.807  2.74
   4821.42   10.818  2.74
   4824.16   10.820  2.74
   4826.90   10.810  2.74
   4829.64   10.817  2.74
   4832.38   10.810  2.74
   4835.12   10.814  2.74
   4837.86   10.820  2.74
   4840.60   10.817  2.74
   4843.34   10.828  2.74
   4846.08   10.828  2.74
   4848.82   10.838  2.74
   4851.56   10.859  2.74
   4854.30   10.902  2.74
   4857.04   10.986  2.74
   4859.78   11.149  2.74
   4862.52   11.168  2.74
   4865.26   11.006  2.74
   4868.00   10.913  2.74
   4870.74   10.894  2.74
   4873.48   10.861  2.74
   4876.22   10.839  2.74
   4878.96   10.839  2.74
   4881.70   10.813  2.74
   4884.44   10.808  2.74
   4887.18   10.789  2.74
   4889.92   10.811  2.74
   4892.66   10.823  2.74
   4895.40   10.795  2.74
   4898.14   10.793  2.74
   4900.88   10.792  2.74
   4903.62   10.786  2.74
   4906.36   10.792  2.74
   4909.10   10.780  2.74
   4911.84   10.771  2.74
   4914.58   10.778  2.74
   4917.32   10.793  2.74
   4920.06   10.809  2.74
   4922.80   10.803  2.74
   4925.54   10.785  2.74
   4928.28   10.768  2.74
   4931.02   10.771  2.74
   4933.76   10.786  2.74
   4936.50   10.778  2.74
   4939.24   10.771  2.74
   4941.98   10.763  2.74
   4944.72   10.758  2.74
   4947.46   10.759  2.74
   4950.20   10.750  2.74
   4952.94   10.750  2.74
   4955.68   10.780  2.74
   4958.42   10.778  2.74
   4961.16   10.763  2.74
   4963.90   10.770  2.74
   4966.64   10.787  2.74
   4969.38   10.768  2.74
   4972.12   10.742  2.74
   4974.86   10.754  2.74
   4977.60   10.758  2.74
   4980.34   10.759  2.74
   4983.08   10.762  2.74
   4985.82   10.757  2.74
   4988.56   10.757  2.74
   4991.30   10.758  2.74
   4994.04   10.749  2.74
   4996.78   10.748  2.74
   4999.52   10.760  2.74
   5002.26   10.763  2.74
   5005.00   10.763  2.74
   5007.74   10.758  2.74
   5010.48   10.759  2.74
   5013.22   10.745  2.74
   5015.96   10.740  2.74
   5018.70   10.759  2.74
   5021.44   10.755  2.74
   5024.18   10.743  2.74
   5026.92   10.736  2.74
   5029.66   10.724  2.74
   5032.40   10.722  2.74
   5035.14   10.742  2.74
   5037.88   10.747  2.74
   5040.62   10.748  2.74
   5043.36   10.754  2.74
   5046.10   10.737  2.74
   5048.84   10.726  2.74
   5051.58   10.732  2.74
   5054.32   10.725  2.74
   5057.06   10.711  2.74
   5059.80   10.717  2.74
   5062.54   10.717  2.74
   5065.28   10.710  2.74
   5068.02   10.741  2.74
   5070.76   10.742  2.74
   5073.50   10.716  2.74
   5076.24   10.711  2.74
   5078.98   10.719  2.74
   5081.72   10.733  2.74
   5084.46   10.718  2.74
   5087.20   10.709  2.74
   5089.94   10.702  2.74
   5092.68   10.697  2.74
   5095.42   10.702  2.74
   5098.16   10.712  2.74
   5100.90   10.713  2.74
   5103.64   10.701  2.74
   5106.38   10.714  2.74
   5109.12   10.728  2.74
   5111.86   10.717  2.74
   5114.60   10.710  2.74
   5117.34   10.702  2.74
   5120.08   10.693  2.74
   5122.82   10.702  2.74
   5125.56   10.700  2.74
   5128.30   10.692  2.74
   5131.04   10.703  2.74
   5133.78   10.715  2.74
   5136.52   10.715  2.74
   5139.26   10.716  2.74
   5142.00   10.719  2.74
   5144.74   10.690  2.74
   5147.48   10.678  2.74
   5150.22   10.692  2.74
   5152.96   10.701  2.74
   5155.70   10.696  2.74
   5158.44   10.690  2.74
   5161.18   10.688  2.74
   5163.92   10.707  2.74
   5166.66   10.752  2.74
   5169.40   10.774  2.74
   5172.14   10.774  2.74
   5174.88   10.749  2.74
   5177.62   10.686  2.74
   5180.36   10.691  2.74
   5183.10   10.730  2.74
   5185.84   10.734  2.74
   5188.58   10.714  2.74
   5191.32   10.710  2.74
   5194.06   10.701  2.74
   5196.80   10.677  2.74
   5199.54   10.685  2.74
   5202.28   10.679  2.74
   5205.02   10.683  2.74
   5207.76   10.700  2.74
   5210.50   10.687  2.74
   5213.24   10.679  2.74
   5215.98   10.681  2.74
   5218.72   10.675  2.74
   5221.46   10.657  2.74
   5224.20   10.659  2.74
   5226.94   10.687  2.74
   5229.68   10.684  2.74
   5232.42   10.669  2.74
   5235.16   10.683  2.74
   5237.90   10.668  2.74
   5240.64   10.641  2.74
   5243.38   10.639  2.74
   5246.12   10.645  2.74
   5248.86   10.651  2.74
   5251.60   10.648  2.74
   5254.34   10.644  2.74
   5257.08   10.629  2.74
   5259.82   10.638  2.74
   5262.56   10.660  2.74
   5265.30   10.682  2.74
   5268.04   10.706  2.74
   5270.78   10.693  2.74
   5273.52   10.658  2.74
   5276.26   10.648  2.74
   5279.00   10.639  2.74
   5281.74   10.648  2.74
   5284.48   10.652  2.74
   5287.22   10.635  2.74
   5289.96   10.629  2.74
   5292.70   10.628  2.74
   5295.44   10.631  2.74
   5298.18   10.645  2.74
   5300.92   10.631  2.74
   5303.66   10.632  2.74
   5306.40   10.634  2.74
   5309.14   10.620  2.74
   5311.88   10.625  2.74
   5314.62   10.628  2.74
   5317.36   10.639  2.74
   5320.10   10.625  2.74
   5322.84   10.631  2.74
   5325.58   10.653  2.74
   5328.32   10.655  2.74
   5331.06   10.641  2.74
   5333.80   10.610  2.74
   5336.54   10.619  2.74
   5339.28   10.631  2.74
   5342.02   10.636  2.74
   5344.76   10.623  2.74
   5347.50   10.626  2.74
   5350.24   10.614  2.74
   5352.98   10.625  2.74
   5355.72   10.611  2.74
   5358.46   10.604  2.74
   5361.20   10.617  2.74
   5363.94   10.642  2.74
   5366.68   10.633  2.74
   5369.42   10.629  2.74
   5372.16   10.631  2.74
   5374.90   10.614  2.74
   5377.64   10.618  2.74
   5380.38   10.618  2.74
   5383.12   10.609  2.74
   5385.86   10.608  2.74
   5388.60   10.613  2.74
   5391.34   10.609  2.74
   5394.08   10.613  2.74
   5396.82   10.619  2.74
   5399.56   10.638  2.74
   5402.30   10.612  2.74
   5405.04   10.617  2.74
   5407.78   10.629  2.74
   5410.52   10.620  2.74
   5413.26   10.605  2.74
   5416.00   10.607  2.74
   5418.74   10.614  2.74
   5421.48   10.602  2.74
   5424.22   10.613  2.74
   5426.96   10.599  2.74
   5429.70   10.605  2.74
   5432.44   10.612  2.74
   5435.18   10.602  2.74
   5437.92   10.594  2.74
   5440.66   10.594  2.74
   5443.40   10.616  2.74
   5446.14   10.598  2.74
   5448.88   10.603  2.74
   5451.62   10.605  2.74
   5454.36   10.609  2.74
   5457.10   10.592  2.74
   5459.84   10.591  2.74
   5462.58   10.596  2.74
   5465.32   10.593  2.74
   5468.06   10.566  2.74
   5470.80   10.575  2.74
   5473.54   10.576  2.74
   5476.28   10.582  2.74
   5479.02   10.587  2.74
   5481.76   10.586  2.74
   5484.50   10.584  2.74
   5487.24   10.571  2.74
   5489.98   10.571  2.74
   5492.72   10.572  2.74
   5495.46   10.567  2.74
   5498.20   10.570  2.74
   5500.94   10.571  2.74
   5503.68   10.568  2.74
   5506.42   10.552  2.74
   5509.16   10.548  2.74
   5511.90   10.558  2.74
   5514.64   10.563  2.74
   5517.38   10.562  2.74
   5520.12   10.564  2.74
   5522.86   10.568  2.74
   5525.60   10.571  2.74
   5528.34   10.571  2.74
   5531.08   10.559  2.74
   5533.82   10.558  2.74
   5536.56   10.548  2.74
   5539.30   10.541  2.74
   5542.04   10.552  2.74
   5544.78   10.547  2.74
   5547.52   10.544  2.74
   5550.26   10.543  2.74
   5553.00   10.547  2.74
   5555.74   10.546  2.74
   5558.48   10.540  2.74
   5561.22   10.542  2.74
   5563.96   10.542  2.74
   5566.70   10.530  2.74
   5569.44   10.527  2.74
   5572.18   10.544  2.74
   5574.92   10.538  2.74
   5577.66   10.534  2.74
   5580.40   10.536  2.74
   5583.14   10.533  2.74
   5585.88   10.546  2.74
   5588.62   10.549  2.74
   5591.36   10.549  2.74
   5594.10   10.548  2.74
   5596.84   10.546  2.74
   5599.58   10.526  2.74
   5602.32   10.505  2.74
   5605.06   10.520  2.74
   5607.80   10.519  2.74
   5610.54   10.527  2.74
   5613.28   10.527  2.74
   5616.02   10.539  2.74
   5618.76   10.522  2.74
   5621.50   10.509  2.74
   5624.24   10.520  2.74
   5626.98   10.524  2.74
   5629.72   10.512  2.74
   5632.46   10.484  2.74
   5635.20   10.515  2.74
   5637.94   10.513  2.74
   5640.68   10.506  2.74
   5643.42   10.498  2.74
   5646.16   10.498  2.74
   5648.90   10.510  2.74
   5651.64   10.514  2.74
   5654.38   10.504  2.74
   5657.12   10.510  2.74
   5659.86   10.535  2.74
   5662.60   10.545  2.74
   5665.34   10.545  2.74
   5668.08   10.514  2.74
   5670.82   10.488  2.74
   5673.56   10.508  2.74
   5676.30   10.508  2.74
   5679.04   10.467  2.74
   5681.78   10.465  2.74
   5684.52   10.487  2.74
   5687.26   10.502  2.74
   5690.00   10.509  2.74
   5692.74   10.477  2.74
   5695.48   10.458  2.74
   5698.22   10.481  2.74
   5700.96   10.495  2.74
   5703.70   10.498  2.74
   5706.44   10.509  2.74
   5709.18   10.521  2.74
   5711.92   10.514  2.74
   5714.66   10.499  2.74
   5717.40   10.479  2.74
   5720.14   10.468  2.74
   5722.88   10.477  2.74
   5725.62   10.466  2.74
   5728.36   10.442  2.74
   5731.10   10.468  2.74
   5733.84   10.504  2.74
   5736.58   10.476  2.74
   5739.32   10.455  2.74
   5742.06   10.475  2.74
   5744.80   10.482  2.74
   5747.54   10.474  2.74
   5750.28   10.471  2.74
   5753.02   10.471  2.74
   5755.76   10.477  2.74
   5758.50   10.484  2.74
   5761.24   10.488  2.74
   5763.98   10.491  2.74
   5766.72   10.495  2.74
   5769.46   10.488  2.74
   5772.20   10.472  2.74
   5774.94   10.474  2.74
   5777.68   10.480  2.74
   5780.42   10.470  2.74
   5783.16   10.460  2.74
   5785.90   10.456  2.74
   5788.64   10.457  2.74
   5791.38   10.463  2.74
   5794.12   10.477  2.74
   5796.86   10.493  2.74
   5799.60   10.457  2.74
   5802.34   10.419  2.74
   5805.08   10.429  2.74
   5807.82   10.441  2.74
   5810.56   10.445  2.74
   5813.30   10.456  2.74
   5816.04   10.474  2.74
   5818.78   10.461  2.74
   5821.52   10.438  2.74
   5824.26   10.444  2.74
   5827.00   10.455  2.74
   5829.74   10.462  2.74
   5832.48   10.463  2.74
   5835.22   10.454  2.74
   5837.96   10.453  2.74
   5840.70   10.456  2.74
   5843.44   10.444  2.74
   5846.18   10.433  2.74
   5848.92   10.441  2.74
   5851.66   10.448  2.74
   5854.40   10.444  2.74
   5857.14   10.451  2.74
   5859.88   10.470  2.74
   5862.62   10.472  2.74
   5865.36   10.462  2.74
   5868.10   10.424  2.74
   5870.84   10.401  2.74
   5873.58   10.436  2.74
   5876.32   10.453  2.74
   5879.06   10.427  2.74
   5881.80   10.442  2.74
   5884.54   10.480  2.74
   5887.28   10.502  2.74
   5890.02   10.514  2.74
   5892.76   10.509  2.74
   5895.50   10.496  2.74
   5898.24   10.472  2.74
   5900.98   10.460  2.74
   5903.72   10.461  2.74
   5906.46   10.454  2.74
   5909.20   10.444  2.74
   5911.94   10.444  2.74
   5914.68   10.444  2.74
   5917.42   10.440  2.74
   5920.16   10.429  2.74
   5922.90   10.400  2.74
   5925.64   10.411  2.74
   5928.38   10.451  2.74
   5931.12   10.438  2.74
   5933.86   10.412  2.74
   5936.60   10.414  2.74
   5939.34   10.423  2.74
   5942.08   10.437  2.74
   5944.82   10.440  2.74
   5947.56   10.427  2.74
   5950.30   10.420  2.74
   5953.04   10.414  2.74
   5955.78   10.426  2.74
   5958.52   10.444  2.74
   5961.26   10.463  2.74
   5964.00   10.469  2.74
   5966.74   10.456  2.74
   5969.48   10.442  2.74
   5972.22   10.424  2.74
   5974.96   10.428  2.74
   5977.70   10.437  2.74
   5980.44   10.426  2.74
   5983.18   10.419  2.74
   5985.92   10.431  2.74
   5988.66   10.437  2.74
   5991.40   10.437  2.74
   5994.14   10.433  2.74
   5996.88   10.423  2.74
   5999.62   10.407  2.74
   6002.36   10.396  2.74
   6005.10   10.405  2.74
   6007.84   10.418  2.74
   6010.58   10.436  2.74
   6013.32   10.441  2.74
   6016.06   10.434  2.74
   6018.80   10.417  2.74
   6021.54   10.401  2.74
   6024.28   10.424  2.74
   6027.02   10.443  2.74
   6029.76   10.428  2.74
   6032.50   10.415  2.74
   6035.24   10.401  2.74
   6037.98   10.403  2.74
   6040.72   10.417  2.74
   6043.46   10.429  2.74
   6046.20   10.435  2.74
   6048.94   10.416  2.74
   6051.68   10.404  2.74
   6054.42   10.414  2.74
   6057.16   10.415  2.74
   6059.90   10.407  2.74
   6062.64   10.399  2.74
   6065.38   10.393  2.74
   6068.12   10.402  2.74
   6070.86   10.413  2.74
   6073.60   10.422  2.74
   6076.34   10.421  2.74
   6079.08   10.397  2.74
   6081.82   10.406  2.74
   6084.56   10.433  2.74
   6087.30   10.412  2.74
   6090.04   10.385  2.74
   6092.78   10.397  2.74
   6095.52   10.407  2.74
   6098.26   10.399  2.74
   6101.00   10.408  2.74
   6103.74   10.440  2.74
   6106.48   10.415  2.74
   6109.22   10.371  2.74
   6111.96   10.393  2.74
   6114.70   10.416  2.74
   6117.44   10.390  2.74
   6120.18   10.381  2.74
   6122.92   10.406  2.74
   6125.66   10.412  2.74
   6128.40   10.410  2.74
   6131.14   10.409  2.74
   6133.88   10.404  2.74
   6136.62   10.385  2.74
   6139.36   10.374  2.74
   6142.10   10.388  2.74
   6144.84   10.392  2.74
   6147.58   10.382  2.74
   6150.32   10.380  2.74
   6153.06   10.382  2.74
   6155.80   10.401  2.74
   6158.54   10.418  2.74
   6161.28   10.413  2.74
   6164.02   10.405  2.74
   6166.76   10.394  2.74
   6169.50   10.395  2.74
   6172.24   10.404  2.74
   6174.98   10.410  2.74
   6177.72   10.413  2.74
   6180.46   10.404  2.74
   6183.20   10.397  2.74
   6185.94   10.406  2.74
   6188.68   10.407  2.74
   6191.42   10.397  2.74
   6194.16   10.393  2.74
   6196.90   10.392  2.74
   6199.64   10.397  2.74
   6202.38   10.401  2.74
   6205.12   10.392  2.74
   6207.86   10.390  2.74
   6210.60   10.407  2.74
   6213.34   10.396  2.74
   6216.08   10.361  2.74
   6218.82   10.362  2.74
   6221.56   10.379  2.74
   6224.30   10.402  2.74
   6227.04   10.415  2.74
   6229.78   10.404  2.74
   6232.52   10.392  2.74
   6235.26   10.377  2.74
   6238.00   10.377  2.74
   6240.74   10.385  2.74
   6243.48   10.389  2.74
   6246.22   10.393  2.74
   6248.96   10.397  2.74
   6251.70   10.399  2.74
   6254.44   10.397  2.74
   6257.18   10.388  2.74
   6259.92   10.368  2.74
   6262.66   10.372  2.74
   6265.40   10.384  2.74
   6268.14   10.385  2.74
   6270.88   10.384  2.74
   6273.62   10.385  2.74
   6276.36   10.384  2.74
   6279.10   10.376  2.74
   6281.84   10.386  2.74
   6284.58   10.406  2.74
   6287.32   10.395  2.74
   6290.06   10.380  2.74
   6292.80   10.396  2.74
   6295.54   10.399  2.74
   6298.28   10.361  2.74
   6301.02   10.360  2.74
   6303.76   10.396  2.74
   6306.50   10.401  2.74
   6309.24   10.394  2.74
   6311.98   10.379  2.74
   6314.72   10.370  2.74
   6317.46   10.387  2.74
   6320.20   10.392  2.74
   6322.94   10.376  2.74
   6325.68   10.363  2.74
   6328.42   10.351  2.74
   6331.16   10.365  2.74
   6333.90   10.383  2.74
   6336.64   10.368  2.74
   6339.38   10.363  2.74
   6342.12   10.395  2.74
   6344.86   10.398  2.74
   6347.60   10.368  2.74
   6350.34   10.364  2.74
   6353.08   10.370  2.74
   6355.82   10.367  2.74
   6358.56   10.365  2.74
   6361.30   10.371  2.74
   6364.04   10.376  2.74
   6366.78   10.383  2.74
   6369.52   10.366  2.74
   6372.26   10.331  2.74
   6375.00   10.342  2.74
   6377.74   10.368  2.74
   6380.48   10.380  2.74
   6383.22   10.383  2.74
   6385.96   10.371  2.74
   6388.70   10.369  2.74
   6391.44   10.382  2.74
   6394.18   10.373  2.74
   6396.92   10.356  2.74
   6399.66   10.357  2.74
   6402.40   10.360  2.74
   6405.14   10.347  2.74
   6407.88   10.342  2.74
   6410.62   10.357  2.74
   6413.36   10.362  2.74
   6416.10   10.361  2.74
   6418.84   10.361  2.74
   6421.58   10.361  2.74
   6424.32   10.365  2.74
   6427.06   10.365  2.74
   6429.80   10.351  2.74
   6432.54   10.348  2.74
   6435.28   10.357  2.74
   6438.02   10.365  2.74
   6440.76   10.374  2.74
   6443.50   10.364  2.74
   6446.24   10.352  2.74
   6448.98   10.357  2.74
   6451.72   10.355  2.74
   6454.46   10.330  2.74
   6457.20   10.336  2.74
   6459.94   10.368  2.74
   6462.68   10.364  2.74
   6465.42   10.348  2.74
   6468.16   10.355  2.74
   6470.90   10.356  2.74
   6473.64   10.331  2.74
   6476.38   10.319  2.74
   6479.12   10.326  2.74
   6481.86   10.332  2.74
   6484.60   10.340  2.74
   6487.34   10.365  2.74
   6490.08   10.387  2.74
   6492.82   10.372  2.74
   6495.56   10.356  2.74
   6498.30   10.350  2.74
   6501.04   10.336  2.74
   6503.78   10.315  2.74
   6506.52   10.322  2.74
   6509.26   10.340  2.74
   6512.00   10.341  2.74
   6514.74   10.340  2.74
   6517.48   10.338  2.74
   6520.22   10.339  2.74
   6522.96   10.341  2.74
   6525.70   10.350  2.74
   6528.44   10.364  2.74
   6531.18   10.348  2.74
   6533.92   10.327  2.74
   6536.66   10.334  2.74
   6539.40   10.342  2.74
   6542.14   10.343  2.74
   6544.88   10.343  2.74
   6547.62   10.338  2.74
   6550.36   10.376  2.74
   6553.10   10.437  2.74
   6555.84   10.453  2.74
   6558.58   10.477  2.74
   6561.32   10.576  2.74
   6564.06   10.607  2.74
   6566.80   10.523  2.74
   6569.54   10.445  2.74
   6572.28   10.358  2.74
   6575.02   10.350  2.74
   6577.76   10.368  2.74
   6580.50   10.357  2.74
   6583.24   10.344  2.74
   6585.98   10.335  2.74
   6588.72   10.324  2.74
   6591.46   10.307  2.74
   6594.20   10.316  2.74
   6596.94   10.337  2.74
   6599.68   10.336  2.74
   6602.42   10.327  2.74
   6605.16   10.308  2.74
   6607.90   10.301  2.74
   6610.64   10.313  2.74
   6613.38   10.323  2.74
   6616.12   10.333  2.74
   6618.86   10.323  2.74
   6621.60   10.306  2.74
   6624.34   10.307  2.74
   6627.08   10.308  2.74
   6629.82   10.305  2.74
   6632.56   10.301  2.74
   6635.30   10.297  2.74
   6638.04   10.297  2.74
   6640.78   10.299  2.74
   6643.52   10.296  2.74
   6646.26   10.293  2.74
   6649.00   10.296  2.74
   6651.74   10.302  2.74
   6654.48   10.317  2.74
   6657.22   10.311  2.74
   6659.96   10.287  2.74
   6662.70   10.303  2.74
   6665.44   10.330  2.74
   6668.18   10.313  2.74
   6670.92   10.295  2.74
   6673.66   10.300  2.74
   6676.40   10.295  2.74
   6679.14   10.273  2.74
   6681.88   10.276  2.74
   6684.62   10.292  2.74
   6687.36   10.294  2.74
   6690.10   10.294  2.74
   6692.84   10.302  2.74
   6695.58   10.297  2.74
   6698.32   10.261  2.74
   6701.06   10.263  2.74
   6703.80   10.300  2.74
   6706.54   10.293  2.74
   6709.28   10.275  2.74
   6712.02   10.299  2.74
   6714.76   10.322  2.74
   6717.50   10.320  2.74
   6720.24   10.303  2.74
   6722.98   10.258  2.74
   6725.72   10.263  2.74
   6728.46   10.298  2.74
   6731.20   10.298  2.74
   6733.94   10.287  2.74
   6736.68   10.278  2.74
   6739.42   10.276  2.74
   6742.16   10.288  2.74
   6744.90   10.293  2.74
   6747.64   10.291  2.74
   6750.38   10.287  2.74
   6753.12   10.282  2.74
   6755.86   10.288  2.74
   6758.60   10.297  2.74
   6761.34   10.307  2.74
   6764.08   10.304  2.74
   6766.82   10.278  2.74
   6769.56   10.276  2.74
   6772.30   10.289  2.74
   6775.04   10.292  2.74
   6777.78   10.289  2.74
   6780.52   10.262  2.74
   6783.26   10.253  2.74
   6786.00   10.292  2.74
   6788.74   10.304  2.74
   6791.48   10.286  2.74
   6794.22   10.291  2.74
   6796.96   10.304  2.74
   6799.70   10.303  2.74
   6802.44   10.299  2.74
   6805.18   10.296  2.74
   6807.92   10.285  2.74
   6810.66   10.256  2.74
   6813.40   10.262  2.74
   6816.14   10.295  2.74
   6818.88   10.293  2.74
   6821.62   10.282  2.74
   6824.36   10.289  2.74
   6827.10   10.296  2.74
   6829.84   10.294  2.74
   6832.58   10.292  2.74
   6835.32   10.288  2.74
   6838.06   10.299  2.74
   6840.80   10.316  2.74
   6843.54   10.303  2.74
   6846.28   10.284  2.74
   6849.02   10.270  2.74
   6851.76   10.268  2.74
   6854.50   10.289  2.74
   6857.24   10.293  2.74
   6859.98   10.285  2.74
   6862.72   10.294  2.74
   6865.46   10.305  2.74
   6868.20   10.298  2.74
   6870.94   10.285  2.74
   6873.68   10.260  2.74
   6876.42   10.259  2.74
   6879.16   10.298  2.74
   6881.90   10.285  2.74
   6884.64   10.249  2.74
   6887.38   10.254  2.74
   6890.12   10.268  2.74
   6892.86   10.272  2.74
   6895.60   10.275  2.74
   6898.34   10.280  2.74
   6901.08   10.278  2.74
   6903.82   10.269  2.74
   6906.56   10.272  2.74
   6909.30   10.277  2.74
   6912.04   10.256  2.74
   6914.78   10.243  2.74
   6917.52   10.265  2.74
   6920.26   10.271  2.74
   6923.00   10.250  2.74
   6925.74   10.253  2.74
   6928.48   10.269  2.74
   6931.22   10.274  2.74
   6933.96   10.270  2.74
   6936.70   10.238  2.74
   6939.44   10.229  2.74
   6942.18   10.278  2.74
   6944.92   10.292  2.74
   6947.66   10.275  2.74
   6950.40   10.267  2.74
   6953.14   10.262  2.74
   6955.88   10.266  2.74
   6958.62   10.271  2.74
   6961.36   10.269  2.74
   6964.10   10.261  2.74
   6966.84   10.243  2.74
   6969.58   10.246  2.74
   6972.32   10.262  2.74
   6975.06   10.271  2.74
   6977.80   10.278  2.74
   6980.54   10.277  2.74
   6983.28   10.272  2.74
   6986.02   10.255  2.74
   6988.76   10.250  2.74
   6991.50   10.255  2.74
   6994.24   10.262  2.74
   6996.98   10.270  2.74
   6999.72   10.269  2.74
   7002.46   10.267  2.74
   7005.20   10.264  2.74
   7007.94   10.264  2.74
   7010.68   10.266  2.74
   7013.42   10.270  2.74
   7016.16   10.276  2.74
   7018.90   10.270  2.74
   7021.64   10.263  2.74
   7024.38   10.275  2.74
   7027.12   10.277  2.74
   7029.86   10.250  2.74
   7032.60   10.236  2.74
   7035.34   10.234  2.74
   7038.08   10.233  2.74
   7040.82   10.233  2.74
   7043.56   10.237  2.74
   7046.30   10.242  2.74
   7049.04   10.250  2.74
   7051.78   10.252  2.74
   7054.52   10.241  2.74
   7057.26   10.248  2.74
   7060.00   10.269  2.74
   7062.74   10.255  2.74
   7065.48   10.231  2.74
   7068.22   10.228  2.74
   7070.96   10.231  2.74
   7073.70   10.242  2.74
   7076.44   10.245  2.74
   7079.18   10.239  2.74
   7081.92   10.234  2.74
   7084.66   10.230  2.74
   7087.40   10.222  2.74
   7090.14   10.220  2.74
   7092.88   10.243  2.74
   7095.62   10.258  2.74
   7098.36   10.256  2.74
   7101.10   10.248  2.74
   7103.84   10.231  2.74
   7106.58   10.229  2.74
   7109.32   10.234  2.74
   7112.06   10.239  2.74
   7114.80   10.242  2.74
   7117.54   10.237  2.74
   7120.28   10.236  2.74
   7123.02   10.239  2.74
   7125.76   10.238  2.74
   7128.50   10.237  2.74
   7131.24   10.250  2.74
   7133.98   10.261  2.74
   7136.72   10.245  2.74
   7139.46   10.232  2.74
   7142.20   10.226  2.74
   7144.94   10.228  2.74
   7147.68   10.239  2.74
   7150.42   10.255  2.74
   7153.16   10.270  2.74
   7155.90   10.265  2.74
   7158.64   10.254  2.74
   7161.38   10.247  2.74
   7164.12   10.235  2.74
   7166.86   10.217  2.74
   7169.60   10.204  2.74
   7172.34   10.194  2.74
   7175.08   10.208  2.74
   7177.82   10.228  2.74
   7180.56   10.237  2.74
   7183.30   10.240  2.74
   7186.04   10.227  2.74
   7188.78   10.244  2.74
   7191.52   10.299  2.74
   7194.26   10.273  2.74
   7197.00   10.219  2.74
   7199.74   10.229  2.74
   7202.48   10.245  2.74
   7205.22   10.232  2.74
   7207.96   10.226  2.74
   7210.70   10.235  2.74
   7213.44   10.239  2.74
   7216.18   10.241  2.74
   7218.92   10.227  2.74
   7221.66   10.212  2.74
   7224.40   10.216  2.74
   7227.14   10.224  2.74
   7229.88   10.236  2.74
   7232.62   10.232  2.74
   7235.36   10.208  2.74
   7238.10   10.201  2.74
   7240.84   10.203  2.74
   7243.58   10.217  2.74
   7246.32   10.234  2.74
   7249.06   10.246  2.74
   7251.80   10.247  2.74
   7254.54   10.231  2.74
   7257.28   10.221  2.74
   7260.02   10.214  2.74
   7262.76   10.214  2.74
   7265.50   10.219  2.74
   7268.24   10.236  2.74
   7270.98   10.240  2.74
   7273.72   10.203  2.74
   7276.46   10.197  2.74
   7279.20   10.228  2.74
   7281.94   10.230  2.74
   7284.68   10.221  2.74
   7287.42   10.213  2.74
   7290.16   10.210  2.74
   7292.90   10.233  2.74
   7295.64   10.239  2.74
   7298.38   10.206  2.74
   7301.12   10.197  2.74
   7303.86   10.202  2.74
   7306.60   10.202  2.74
   7309.34   10.202  2.74
   7312.08   10.202  2.74
   7314.82   10.206  2.74
   7317.56   10.221  2.74
   7320.30   10.224  2.74
   7323.04   10.209  2.74
   7325.78   10.220  2.74
   7328.52   10.243  2.74
   7331.26   10.232  2.74
   7334.00   10.214  2.74
   7336.74   10.209  2.74
   7339.48   10.210  2.74
   7342.22   10.230  2.74
   7344.96   10.220  2.74
   7347.70   10.184  2.74
   7350.44   10.199  2.74
   7353.18   10.228  2.74
   7355.92   10.202  2.74
   7358.66   10.183  2.74
   7361.40   10.212  2.74
   7364.14   10.218  2.74
   7366.88   10.181  2.74
   7369.62   10.187  2.74
   7372.36   10.213  2.74
   7375.10   10.204  2.74
   7377.84   10.189  2.74
   7380.58   10.194  2.74
   7383.32   10.197  2.74
   7386.06   10.196  2.74
   7388.80   10.190  2.74
   7391.54   10.177  2.74
   7394.28   10.194  2.74
   7397.02   10.222  2.74
   7399.76   10.204  2.74
   7402.50   10.194  2.74
   7405.24   10.239  2.74
   7407.98   10.253  2.74
   7410.72   10.208  2.74
   7413.46   10.211  2.74
   7416.20   10.238  2.74
   7418.94   10.223  2.74
   7421.68   10.202  2.74
   7424.42   10.221  2.74
   7427.16   10.229  2.74
   7429.90   10.197  2.74
   7432.64   10.189  2.74
   7435.38   10.204  2.74
   7438.12   10.206  2.74
   7440.86   10.203  2.74
   7443.60   10.189  2.74
   7446.34   10.177  2.74
   7449.08   10.174  2.74
   7451.82   10.178  2.74
   7454.56   10.195  2.74
   7457.30   10.189  2.74
   7460.04   10.168  2.74
   7462.78   10.178  2.74
   7465.52   10.198  2.74
   7468.26   10.205  2.74
   7471.00   10.208  2.74
   7473.74   10.204  2.74
   7476.48   10.207  2.74
   7479.22   10.217  2.74
   7481.96   10.208  2.74
   7484.70   10.191  2.74
   7487.44   10.191  2.74
   7490.18   10.197  2.74
   7492.92   10.209  2.74
   7495.66   10.211  2.74
   7498.40   10.190  2.74
   7501.14   10.196  2.74
   7503.88   10.223  2.74
   7506.62   10.209  2.74
   7509.36   10.186  2.74
   7512.10   10.203  2.74
   7514.84   10.217  2.74
   7517.58   10.208  2.74
   7520.32   10.199  2.74
   7523.06   10.189  2.74
   7525.80   10.188  2.74
   7528.54   10.193  2.74
   7531.28   10.200  2.74
   7534.02   10.204  2.74
   7536.76   10.191  2.74
   7539.50   10.191  2.74
   7542.24   10.227  2.74
   7544.98   10.228  2.74
   7547.72   10.201  2.74
   7550.46   10.191  2.74
   7553.20   10.190  2.74
   7555.94   10.201  2.74
   7558.68   10.212  2.74
   7561.42   10.214  2.74
   7564.16   10.206  2.74
   7566.90   10.182  2.74
   7569.64   10.177  2.74
   7572.38   10.181  2.74
   7575.12   10.191  2.74
   7577.86   10.206  2.74
   7580.60   10.231  2.74
   7583.34   10.238  2.74
   7586.08   10.208  2.74
   7588.82   10.189  2.74
   7591.56   10.174  2.74
   7594.30   10.186  2.74
   7597.04   10.210  2.74
   7599.78   10.213  2.74
   7602.52   10.210  2.74
   7605.26   10.207  2.74
   7608.00   10.205  2.74
   7610.74   10.208  2.74
   7613.48   10.194  2.74
   7616.22   10.171  2.74
   7618.96   10.174  2.74
   7621.70   10.186  2.74
   7624.44   10.195  2.74
   7627.18   10.198  2.74
   7629.92   10.188  2.74
   7632.66   10.190  2.74
   7635.40   10.206  2.74
   7638.14   10.199  2.74
   7640.88   10.184  2.74
   7643.62   10.182  2.74
   7646.36   10.185  2.74
   7649.10   10.188  2.74
   7651.84   10.190  2.74
   7654.58   10.193  2.74
   7657.32   10.194  2.74
   7660.06   10.194  2.74
   7662.80   10.202  2.74
   7665.54   10.209  2.74
   7668.28   10.204  2.74
   7671.02   10.200  2.74
   7673.76   10.207  2.74
   7676.50   10.200  2.74
   7679.24   10.175  2.74
   7681.98   10.170  2.74
   7684.72   10.174  2.74
   7687.46   10.169  2.74
   7690.20   10.173  2.74
   7692.94   10.213  2.74
   7695.68   10.232  2.74
   7698.42   10.211  2.74
   7701.16   10.203  2.74
   7703.90   10.197  2.74
   7706.64   10.193  2.74
   7709.38   10.192  2.74
   7712.12   10.197  2.74
   7714.86   10.199  2.74
   7717.60   10.187  2.74
   7720.34   10.182  2.74
   7723.08   10.183  2.74
   7725.82   10.178  2.74
   7728.56   10.173  2.74
   7731.30   10.210  2.74
   7734.04   10.244  2.74
   7736.78   10.218  2.74
   7739.52   10.200  2.74
   7742.26   10.209  2.74
   7745.00   10.196  2.74
   7747.74   10.167  2.74
   7750.48   10.183  2.74
   7753.22   10.212  2.74
   7755.96   10.209  2.74
   7758.70   10.198  2.74
   7761.44   10.185  2.74
   7764.18   10.175  2.74
   7766.92   10.167  2.74
   7769.66   10.169  2.74
   7772.40   10.176  2.74
   7775.14   10.171  2.74
   7777.88   10.168  2.74
   7780.62   10.181  2.74
   7783.36   10.192  2.74
   7786.10   10.199  2.74
   7788.84   10.196  2.74
   7791.58   10.182  2.74
   7794.32   10.183  2.74
   7797.06   10.190  2.74
   7799.80   10.204  2.74
   7802.54   10.209  2.74
   7805.28   10.183  2.74
   7808.02   10.170  2.74
   7810.76   10.176  2.74
   7813.50   10.170  2.74
   7816.24   10.159  2.74
   7818.98   10.163  2.74
   7821.72   10.172  2.74
   7824.46   10.174  2.74
   7827.20   10.174  2.74
   7829.94   10.171  2.74
   7832.68   10.172  2.74
   7835.42   10.178  2.74
   7838.16   10.177  2.74
   7840.90   10.174  2.74
   7843.64   10.180  2.74
   7846.38   10.183  2.74
   7849.12   10.166  2.74
   7851.86   10.160  2.74
   7854.60   10.170  2.74
   7857.34   10.177  2.74
   7860.08   10.184  2.74
   7862.82   10.175  2.74
   7865.56   10.168  2.74
   7868.30   10.197  2.74
   7871.04   10.226  2.74
   7873.78   10.250  2.74
   7876.52   10.240  2.74
   7879.26   10.190  2.74
   7882.00   10.173  2.74
   7884.74   10.168  2.74
   7887.48   10.168  2.74
   7890.22   10.173  2.74
   7892.96   10.189  2.74
   7895.70   10.189  2.74
   7898.44   10.157  2.74
   7901.18   10.158  2.74
   7903.92   10.182  2.74
   7906.66   10.159  2.74
   7909.40   10.135  2.74
   7912.14   10.169  2.74
   7914.88   10.205  2.74
   7917.62   10.232  2.74
   7920.36   10.219  2.74
   7923.10   10.156  2.74
   7925.84   10.158  2.74
   7928.58   10.187  2.74
   7931.32   10.192  2.74
   7934.06   10.190  2.74
   7936.80   10.180  2.74
   7939.54   10.179  2.74
   7942.28   10.209  2.74
   7945.02   10.183  2.74
   7947.76   10.116  2.74
   7950.50   10.124  2.74
   7953.24   10.156  2.74
   7955.98   10.156  2.74
   7958.72   10.153  2.74
   7961.46   10.160  2.74
   7964.20   10.161  2.74
   7966.94   10.150  2.74
   7969.68   10.160  2.74
   7972.42   10.177  2.74
   7975.16   10.147  2.74
   7977.90   10.123  2.74
   7980.64   10.166  2.74
   7983.38   10.182  2.74
   7986.12   10.125  2.74
   7988.86   10.124  2.74
   7991.60   10.166  2.74
   7994.34   10.166  2.74
   7997.08   10.155  2.74
   7999.82   10.165  2.74
   8002.56   10.172  2.74
   8005.30   10.166  2.74
   8008.04   10.161  2.74
   8010.78   10.158  2.74
   8013.52   10.153  2.74
   8016.26   10.147  2.74
   8019.00   10.138  2.74
   8021.74   10.135  2.74
   8024.48   10.157  2.74
   8027.22   10.168  2.74
   8029.96   10.151  2.74
   8032.70   10.145  2.74
   8035.44   10.147  2.74
   8038.18   10.152  2.74
   8040.92   10.159  2.74
   8043.66   10.153  2.74
   8046.40   10.147  2.74
   8049.14   10.153  2.74
   8051.88   10.151  2.74
   8054.62   10.129  2.74
   8057.36   10.144  2.74
   8060.10   10.180  2.74
   8062.84   10.172  2.74
   8065.58   10.158  2.74
   8068.32   10.182  2.74
   8071.06   10.191  2.74
   8073.80   10.154  2.74
   8076.54   10.142  2.74
   8079.28   10.152  2.74
   8082.02   10.158  2.74
   8084.76   10.164  2.74
   8087.50   10.161  2.74
   8090.24   10.157  2.74
   8092.98   10.157  2.74
   8095.72   10.163  2.74
   8098.46   10.182  2.74
   8101.20   10.189  2.74
   8103.94   10.188  2.74
   8106.68   10.171  2.74
   8109.42   10.156  2.74
   8112.16   10.183  2.74
   8114.90   10.196  2.74
   8117.64   10.152  2.74
   8120.38   10.150  2.74
   8123.12   10.196  2.74
   8125.86   10.190  2.74
   8128.60   10.163  2.74
   8131.34   10.155  2.74
   8134.08   10.152  2.74
   8136.82   10.149  2.74
   8139.56   10.149  2.74
   8142.30   10.156  2.74
   8145.04   10.151  2.74
   8147.78   10.137  2.74
   8150.52   10.133  2.74
   8153.26   10.135  2.74
   8156.00   10.151  2.74
   8158.74   10.158  2.74
   8161.48   10.133  2.74
   8164.22   10.122  2.74
   8166.96   10.127  2.74
   8169.70   10.121  2.74
   8172.44   10.113  2.74
   8175.18   10.120  2.74
   8177.92   10.135  2.74
   8180.66   10.160  2.74
   8183.40   10.172  2.74
   8186.14   10.162  2.74
   8188.88   10.138  2.74
   8191.62   10.101  2.74
   8194.36   10.106  2.74
   8197.10   10.129  2.74
   8199.84   10.140  2.74
   8202.58   10.150  2.74
   8205.32   10.167  2.74
   8208.06   10.165  2.74
   8210.80   10.140  2.74
   8213.54   10.119  2.74
   8216.28   10.101  2.74
   8219.02   10.135  2.74
   8221.76   10.176  2.74
   8224.50   10.177  2.74
   8227.24   10.162  2.74
   8229.98   10.122  2.74
   8232.72   10.116  2.74
   8235.46   10.139  2.74
   8238.20   10.152  2.74
   8240.94   10.164  2.74
   8243.68   10.174  2.74
   8246.42   10.174  2.74
   8249.16   10.146  2.74
   8251.90   10.137  2.74
   8254.64   10.159  2.74
   8257.38   10.147  2.74
   8260.12   10.117  2.74
   8262.86   10.114  2.74
   8265.60   10.121  2.74
   8268.34   10.136  2.74
   8271.08   10.145  2.74
   8273.82   10.129  2.74
   8276.56   10.147  2.74
   8279.30   10.206  2.74
   8282.04   10.176  2.74
   8284.78   10.118  2.74
   8287.52   10.144  2.74
   8290.26   10.168  2.74
   8293.00   10.122  2.74
   8295.74   10.110  2.74
   8298.48   10.158  2.74
   8301.22   10.171  2.74
   8303.96   10.167  2.74
   8306.70   10.162  2.74
   8309.44   10.156  2.74
   8312.18   10.157  2.74
   8314.92   10.159  2.74
   8317.66   10.161  2.74
   8320.40   10.154  2.74
   8323.14   10.136  2.74
   8325.88   10.124  2.74
   8328.62   10.118  2.74
   8331.36   10.135  2.74
   8334.10   10.152  2.74
   8336.84   10.147  2.74
   8339.58   10.146  2.74
   8342.32   10.154  2.74
   8345.06   10.157  2.74
   8347.80   10.155  2.74
   8350.54   10.143  2.74
   8353.28   10.131  2.74
   8356.02   10.149  2.74
   8358.76   10.163  2.74
   8361.50   10.154  2.74
   8364.24   10.157  2.74
   8366.98   10.181  2.74
   8369.72   10.160  2.74
   8372.46   10.119  2.74
   8375.20   10.097  2.74
   8377.94   10.088  2.74
   8380.68   10.107  2.74
   8383.42   10.120  2.74
   8386.16   10.115  2.74
   8388.90   10.131  2.74
   8391.64   10.163  2.74
   8394.38   10.134  2.74
   8397.12   10.093  2.74
   8399.86   10.118  2.74
   8402.60   10.137  2.74
   8405.34   10.106  2.74
   8408.08   10.103  2.74
   8410.82   10.137  2.74
   8413.56   10.138  2.74
   8416.30   10.125  2.74
   8419.04   10.144  2.74
   8421.78   10.158  2.74
   8424.52   10.118  2.74
   8427.26   10.099  2.74
   8430.00   10.124  2.74
   8432.74   10.151  2.74
   8435.48   10.188  2.74
   8438.22   10.152  2.74
   8440.96   10.094  2.74
   8443.70   10.083  2.74
   8446.44   10.093  2.74
   8449.18   10.137  2.74
   8451.92   10.152  2.74
   8454.66   10.123  2.74
   8457.40   10.122  2.74
   8460.14   10.133  2.74
   8462.88   10.142  2.74
   8465.62   10.147  2.74
   8468.36   10.136  2.74
   8471.10   10.125  2.74
   8473.84   10.114  2.74
   8476.58   10.124  2.74
   8479.32   10.158  2.74
   8482.06   10.143  2.74
   8484.80   10.112  2.74
   8487.54   10.109  2.74
   8490.28   10.123  2.74
   8493.02   10.178  2.74
   8495.76   10.191  2.74
   8498.50   10.133  2.74
   8501.24   10.113  2.74
   8503.98   10.107  2.74
   8506.72   10.102  2.74
   8509.46   10.103  2.74
   8512.20   10.111  2.74
   8514.94   10.123  2.74
   8517.68   10.144  2.74
   8520.42   10.154  2.74
   8523.16   10.154  2.74
   8525.90   10.154  2.74
   8528.64   10.155  2.74
   8531.38   10.174  2.74
   8534.12   10.193  2.74
   8536.86   10.195  2.74
   8539.60   10.207  2.74
   8542.34   10.254  2.74
   8545.08   10.228  2.74
   8547.82   10.157  2.74
   8550.56   10.143  2.74
   8553.30   10.142  2.74
   8556.04   10.121  2.74
   8558.78   10.105  2.74
   8561.52   10.101  2.74
   8564.26   10.115  2.74
   8567.00   10.153  2.74
   8569.74   10.153  2.74
   8572.48   10.138  2.74
   8575.22   10.145  2.74
   8577.96   10.152  2.74
   8580.70   10.142  2.74
   8583.44   10.127  2.74
   8586.18   10.098  2.74
   8588.92   10.104  2.74
   8591.66   10.139  2.74
   8594.40   10.138  2.74
   8597.14   10.128  2.74
   8599.88   10.133  2.74
   8602.62   10.136  2.74
   8605.36   10.126  2.74
   8608.10   10.121  2.74
   8610.84   10.122  2.74
   8613.58   10.115  2.74
   8616.32   10.103  2.74
   8619.06   10.096  2.74
   8621.80   10.099  2.74
   8624.54   10.128  2.74
   8627.28   10.147  2.74
   8630.02   10.149  2.74
   8632.76   10.137  2.74
   8635.50   10.111  2.74
   8638.24   10.105  2.74
   8640.98   10.109  2.74
   8643.72   10.124  2.74
   8646.46   10.136  2.74
   8649.20   10.132  2.74
   8651.94   10.133  2.74
   8654.68   10.137  2.74
   8657.42   10.157  2.74
   8660.16   10.186  2.74
   8662.90   10.184  2.74
   8665.64   10.168  2.74
   8668.38   10.144  2.74
   8671.12   10.117  2.74
   8673.86   10.076  2.74
   8676.60   10.077  2.74
   8679.34   10.117  2.74
   8682.08   10.115  2.74
   8684.82   10.099  2.74
   8687.56   10.099  2.74
   8690.30   10.100  2.74
   8693.04   10.095  2.74
   8695.78   10.100  2.74
   8698.52   10.122  2.74
   8701.26   10.123  2.74
   8704.00   10.111  2.74
   8706.74   10.095  2.74
   8709.48   10.079  2.74
   8712.22   10.065  2.74
   8714.96   10.065  2.74
   8717.70   10.088  2.74
   8720.44   10.109  2.74
   8723.18   10.131  2.74
   8725.92   10.115  2.74
   8728.66   10.085  2.74
   8731.40   10.091  2.74
   8734.14   10.103  2.74
   8736.88   10.116  2.74
   8739.62   10.112  2.74
   8742.36   10.075  2.74
   8745.10   10.088  2.74
   8747.84   10.133  2.74
   8750.58   10.153  2.74
   8753.32   10.158  2.74
   8756.06   10.135  2.74
   8758.80   10.121  2.74
   8761.54   10.138  2.74
   8764.28   10.141  2.74
   8767.02   10.132  2.74
   8769.76   10.124  2.74
   8772.50   10.119  2.74
   8775.24   10.132  2.74
   8777.98   10.140  2.74
   8780.72   10.121  2.74
   8783.46   10.098  2.74
   8786.20   10.065  2.74
   8788.94   10.061  2.74
   8791.68   10.077  2.74
   8794.42   10.129  2.74
   8797.16   10.178  2.74
   8799.90   10.122  2.74
   8802.64   10.073  2.74
   8805.38   10.070  2.74
   8808.12   10.086  2.74
   8810.86   10.132  2.74
   8813.60   10.132  2.74
   8816.34   10.108  2.74
   8819.08   10.082  2.74
   8821.82   10.064  2.74
   8824.56   10.072  2.74
   8827.30   10.085  2.74
   8830.04   10.102  2.74
   8832.78   10.115  2.74
   8835.52   10.125  2.74
   8838.26   10.113  2.74
   8841.00   10.093  2.74
   8843.74   10.077  2.74
   8846.48   10.081  2.74
   8849.22   10.134  2.74
   8851.96   10.156  2.74
   8854.70   10.136  2.74
   8857.44   10.125  2.74
   8860.18   10.112  2.74
   8862.92   10.107  2.74
   8865.66   10.096  2.74
   8868.40   10.053  2.74
   8871.14   10.038  2.74
   8873.88   10.084  2.74
   8876.62   10.086  2.74
   8879.36   10.054  2.74
   8882.10   10.073  2.74
   8884.84   10.107  2.74
   8887.58   10.105  2.74
   8890.32   10.098  2.74
   8893.06   10.097  2.74
   8895.80   10.092  2.74
   8898.54   10.077  2.74
   8901.28   10.079  2.74
   8904.02   10.091  2.74
   8906.76   10.107  2.74
   8909.50   10.123  2.74
   8912.24   10.133  2.74
   8914.98   10.128  2.74
   8917.72   10.089  2.74
   8920.46   10.085  2.74
   8923.20   10.113  2.74
   8925.94   10.126  2.74
   8928.68   10.132  2.74
   8931.42   10.120  2.74
   8934.16   10.106  2.74
   8936.90   10.099  2.74
   8939.64   10.106  2.74
   8942.38   10.138  2.74
   8945.12   10.150  2.74
   8947.86   10.150  2.74
   8950.60   10.122  2.74
   8953.34   10.092  2.74
   8956.08   10.092  2.74
   8958.82   10.098  2.74
   8961.56   10.108  2.74
   8964.30   10.117  2.74
   8967.04   10.129  2.74
   8969.78   10.077  2.74
   8972.52   10.009  2.74
   8975.26   10.044  2.74
   8978.00   10.092  2.74
   8980.74   10.096  2.74
   8983.48   10.098  2.74
   8986.22   10.104  2.74
   8988.96   10.087  2.74
   8991.70   10.053  2.74
   8994.44   10.065  2.74
   8997.18   10.092  2.74
   8999.92   10.104  2.74
   9002.66   10.113  2.74
   9005.40   10.122  2.74
   9008.14   10.116  2.74
   9010.88   10.091  2.74
   9013.62   10.097  2.74
   9016.36   10.119  2.74
   9019.10   10.147  2.74
   9021.84   10.161  2.74
   9024.58   10.135  2.74
   9027.32   10.095  2.74
   9030.06   10.028  2.74
   9032.80   10.024  2.74
   9035.54   10.067  2.74
   9038.28   10.090  2.74
   9041.02   10.100  2.74
   9043.76   10.064  2.74
   9046.50   10.041  2.74
   9049.24   10.066  2.74
   9051.98   10.074  2.74
   9054.72   10.060  2.74
   9057.46   10.074  2.74
   9060.20   10.099  2.74
   9062.94   10.087  2.74
   9065.68   10.065  2.74
   9068.42   10.041  2.74
   9071.16   10.045  2.74
   9073.90   10.115  2.74
   9076.64   10.102  2.74
   9079.38   10.026  2.74
   9082.12   10.034  2.74
   9084.86   10.071  2.74
   9087.60   10.087  2.74
   9090.34   10.096  2.74
   9093.08   10.098  2.74
   9095.82   10.085  2.74
   9098.56   10.046  2.74
   9101.30   10.032  2.74
   9104.04   10.031  2.74
   9106.78   10.056  2.74
   9109.52   10.086  2.74
   9112.26   10.098  2.74
   9115.00   10.100  2.74
   9117.74   10.084  2.74
   9120.48   10.083  2.74
   9123.22   10.098  2.74
   9125.96   10.079  2.74
   9128.70   10.052  2.74
   9131.44   10.050  2.74
   9134.18   10.059  2.74
   9136.92   10.078  2.74
   9139.66   10.090  2.74
   9142.40   10.082  2.74
   9145.14   10.103  2.74
   9147.88   10.139  2.74
   9150.62   10.141  2.74
   9153.36   10.126  2.74
   9156.10   10.085  2.74
   9158.84   10.060  2.74
   9161.58   10.069  2.74
   9164.32   10.080  2.74
   9167.06   10.097  2.74
   9169.80   10.099  2.74
   9172.54   10.093  2.74
   9175.28   10.086  2.74
   9178.02   10.086  2.74
   9180.76   10.122  2.74
   9183.50   10.120  2.74
   9186.24   10.048  2.74
   9188.98   10.048  2.74
   9191.72   10.088  2.74
   9194.46   10.079  2.74
   9197.20   10.061  2.74
   9199.94   10.075  2.74
   9202.68   10.085  2.74
   9205.42   10.076  2.74
   9208.16   10.077  2.74
   9210.90   10.089  2.74
   9213.64   10.101  2.74
   9216.38   10.111  2.74
   9219.12   10.090  2.74
   9221.86   10.072  2.74
   9224.60   10.082  2.74
   9227.34   10.099  2.74
   9230.08   10.134  2.74
   9232.82   10.128  2.74
   9235.56   10.095  2.74
   9238.30   10.085  2.74
   9241.04   10.081  2.74
   9243.78   10.070  2.74
   9246.52   10.064  2.74
   9249.26   10.068  2.74
   9252.00   10.068  2.74
   9254.74   10.059  2.74
   9257.48   10.073  2.74
   9260.22   10.100  2.74
   9262.96   10.126  2.74
   9265.70   10.135  2.74
   9268.44   10.084  2.74
   9271.18   10.070  2.74
   9273.92   10.142  2.74
   9276.66   10.135  2.74
   9279.40   10.072  2.74
   9282.14   10.060  2.74
   9284.88   10.066  2.74
   9287.62   10.077  2.74
   9290.36   10.082  2.74
   9293.10   10.068  2.74
   9295.84   10.062  2.74
   9298.58   10.066  2.74
   9301.32   10.082  2.74
   9304.06   10.108  2.74
   9306.80   10.127  2.74
   9309.54   10.134  2.74
   9312.28   10.107  2.74
   9315.02   10.087  2.74
   9317.76   10.091  2.74
   9320.50   10.070  2.74
   9323.24   10.026  2.74
   9325.98   10.034  2.74
   9328.72   10.057  2.74
   9331.46   10.020  2.74
   9334.20   10.004  2.74
   9336.94   10.081  2.74
   9339.68   10.101  2.74
   9342.42   10.027  2.74
   9345.16   10.022  2.74
   9347.90   10.048  2.74
   9350.64   10.072  2.74
   9353.38   10.088  2.74
   9356.12   10.065  2.74
   9358.86   10.052  2.74
   9361.60   10.070  2.74
   9364.34   10.070  2.74
   9367.08   10.053  2.74
   9369.82   10.065  2.74
   9372.56   10.087  2.74
   9375.30   10.083  2.74
   9378.04   10.080  2.74
   9380.78   10.097  2.74
   9383.52   10.099  2.74
   9386.26   10.070  2.74
   9389.00   10.068  2.74
   9391.74   10.078  2.74
   9394.48   10.055  2.74
   9397.22   10.034  2.74
   9399.96   10.061  2.74
   9402.70   10.079  2.74
   9405.44   10.062  2.74
   9408.18   10.058  2.74
   9410.92   10.064  2.74
   9413.66   10.079  2.74
   9416.40   10.099  2.74
   9419.14   10.111  2.74
   9421.88   10.119  2.74
   9424.62   10.130  2.74
   9427.36   10.124  2.74
   9430.10   10.091  2.74
   9432.84   10.071  2.74
   9435.58   10.056  2.74
   9438.32   10.050  2.74
   9441.06   10.048  2.74
   9443.80   10.040  2.74
   9446.54   10.045  2.74
   9449.28   10.085  2.74
   9452.02   10.101  2.74
   9454.76   10.091  2.74
   9457.50   10.086  2.74
   9460.24   10.083  2.74
   9462.98   10.091  2.74
   9465.72   10.104  2.74
   9468.46   10.121  2.74
   9471.20   10.119  2.74
   9473.94   10.076  2.74
   9476.68   10.085  2.74
   9479.42   10.132  2.74
   9482.16   10.114  2.74
   9484.90   10.084  2.74
   9487.64   10.111  2.74
   9490.38   10.133  2.74
   9493.12   10.117  2.74
   9495.86   10.109  2.74
   9498.60   10.113  2.74
   9501.34   10.095  2.74
   9504.08   10.068  2.74
   9506.82   10.065  2.74
   9509.56   10.064  2.74
   9512.30   10.044  2.74
   9515.04   10.033  2.74
   9517.78   10.034  2.74
   9520.52   10.046  2.74
   9523.26   10.069  2.74
   9526.00   10.078  2.74
   9528.74   10.083  2.74
   9531.48   10.101  2.74
   9534.22   10.114  2.74
   9536.96   10.115  2.74
   9539.70   10.108  2.74
   9542.44   10.081  2.74
   9545.18   10.127  2.74
   9547.92   10.212  2.74
   9550.66   10.169  2.74
   9553.40   10.104  2.74
   9556.14   10.098  2.74
   9558.88   10.109  2.74
   9561.62   10.155  2.74
   9564.36   10.147  2.74
   9567.10   10.092  2.74
   9569.84   10.056  2.74
   9572.58   10.037  2.74
   9575.32   10.091  2.74
   9578.06   10.136  2.74
   9580.80   10.097  2.74
   9583.54   10.067  2.74
   9586.28   10.049  2.74
   9589.02   10.053  2.74
   9591.76   10.074  2.74
   9594.50   10.062  2.74
   9597.24   10.046  2.74
   9599.98   10.062  2.74
   9602.72   10.069  2.74
   9605.46   10.043  2.74
   9608.20   10.048  2.74
   9610.94   10.085  2.74
   9613.68   10.091  2.74
   9616.42   10.080  2.74
   9619.16   10.052  2.74
   9621.90   10.036  2.74
   9624.64   10.078  2.74
   9627.38   10.083  2.74
   9630.12   10.020  2.74
   9632.86   10.005  2.74
   9635.60   10.017  2.74
   9638.34   10.068  2.74
   9641.08   10.119  2.74
   9643.82   10.073  2.74
   9646.56   10.046  2.74
   9649.30   10.094  2.74
   9652.04   10.114  2.74
   9654.78   10.105  2.74
   9657.52   10.106  2.74
   9660.26   10.102  2.74
   9663.00   10.063  2.74
   9665.74   10.029  2.74
   9668.48   10.033  2.74
   9671.22   10.050  2.74
   9673.96   10.091  2.74
   9676.70   10.112  2.74
   9679.44   10.121  2.74
   9682.18   10.084  2.74
   9684.92   10.039  2.74
   9687.66   10.050  2.74
   9690.40   10.068  2.74
   9693.14   10.084  2.74
   9695.88   10.077  2.74
   9698.62   10.038  2.74
   9701.36   10.061  2.74
   9704.10   10.115  2.74
   9706.84   10.117  2.74
   9709.58   10.104  2.74
   9712.32   10.085  2.74
   9715.06   10.082  2.74
   9717.80   10.112  2.74
   9720.54   10.123  2.74
   9723.28   10.122  2.74
   9726.02   10.154  2.74
   9728.76   10.181  2.74
   9731.50   10.123  2.74
   9734.24   10.073  2.74
   9736.98   10.074  2.74
   9739.72   10.080  2.74
   9742.46   10.093  2.74
   9745.20   10.106  2.74
   9747.94   10.115  2.74
   9750.68   10.064  2.74
   9753.42   10.020  2.74
   9756.16   10.060  2.74
   9758.90   10.090  2.74
   9761.64   10.072  2.74
   9764.38   10.092  2.74
   9767.12   10.145  2.74
   9769.86   10.143  2.74
   9772.60   10.115  2.74
   9775.34   10.087  2.74
   9778.08   10.055  2.74
   9780.82   10.012  2.74
   9783.56    9.997  2.74
   9786.30   10.015  2.74
   9789.04   10.040  2.74
   9791.78   10.072  2.74
   9794.52   10.047  2.74
   9797.26   10.019  2.74
   9800.00   10.053  2.74
   9802.74   10.092  2.74
   9805.48   10.138  2.74
   9808.22   10.135  2.74
   9810.96   10.083  2.74
   9813.70   10.074  2.74
   9816.44   10.077  2.74
   9819.18   10.058  2.74
   9821.92   10.054  2.74
   9824.66   10.122  2.74
   9827.40   10.120  2.74
   9830.14   10.002  2.74
   9832.88    9.960  2.74
   9835.62    9.953  2.74
   9838.36   10.011  2.74
   9841.10   10.077  2.74
   9843.84   10.036  2.74
   9846.58   10.012  2.74
   9849.32   10.049  2.74
   9852.06   10.088  2.74
   9854.80   10.138  2.74
   9857.54   10.133  2.74
   9860.28   10.097  2.74
   9863.02   10.072  2.74
   9865.76   10.050  2.74
   9868.50   10.024  2.74
   9871.24   10.027  2.74
   9873.98   10.100  2.74
   9876.72   10.060  2.74
   9879.46    9.953  2.74
   9882.20    9.992  2.74
   9884.94   10.070  2.74
   9887.68   10.061  2.74
   9890.42   10.046  2.74
   9893.16   10.050  2.74
   9895.90   10.053  2.74
   9898.64   10.051  2.74
   9901.38   10.070  2.74
   9904.12   10.093  2.74
   9906.86   10.051  2.74
   9909.60   10.021  2.74
   9912.34   10.097  2.74
   9915.08   10.123  2.74
   9917.82   10.038  2.74
   9920.56   10.015  2.74
   9923.30   10.026  2.74
   9926.04   10.038  2.74
   9928.78   10.049  2.74
   9931.52   10.035  2.74
   9934.26   10.030  2.74
   9937.00   10.059  2.74
   9939.74   10.069  2.74
   9942.48   10.044  2.74
   9945.22   10.095  2.74
   9947.96   10.186  2.74
   9950.70   10.188  2.74
   9953.44   10.146  2.74
   9956.18   10.052  2.74
   9958.92   10.007  2.74
   9961.66   10.053  2.74
   9964.40   10.060  2.74
   9967.14   10.040  2.74
   9969.88   10.067  2.74
   9972.62   10.106  2.74
   9975.36   10.098  2.74
   9978.10   10.088  2.74
   9980.84   10.103  2.74
   9983.58   10.090  2.74
   9986.32   10.030  2.74
   9989.06   10.046  2.74
   9991.80   10.098  2.74
   9994.54   10.064  2.74
   9997.28   10.024  2.74
  10000.02   10.060  2.74
  10002.76   10.077  2.74
  10005.50   10.038  2.74
  10008.24   10.024  2.74
  10010.98   10.025  2.74
  10013.72   10.069  2.74
  10016.46   10.124  2.74
  10019.20   10.070  2.74
  10021.94   10.037  2.74
  10024.68   10.129  2.74
  10027.42   10.173  2.74
  10030.16   10.134  2.74
  10032.90   10.126  2.74
  10035.64   10.124  2.74
  10038.38   10.095  2.74
  10041.12   10.058  2.74
  10043.86   10.009  2.74
  10046.60    9.995  2.74
  10049.34   10.049  2.74
  10052.08   10.095  2.74
  10054.82   10.141  2.74
  10057.56   10.120  2.74
  10060.30   10.066  2.74
  10063.04   10.031  2.74
  10065.78   10.024  2.74
  10068.52   10.092  2.74
  10071.26   10.121  2.74
  10074.00   10.067  2.74
  10076.74   10.086  2.74
  10079.48   10.146  2.74
  10082.22   10.118  2.74
  10084.96   10.070  2.74
  10087.70   10.064  2.74
  10090.44   10.079  2.74
  10093.18   10.153  2.74
  10095.92   10.121  2.74
  10098.66    9.973  2.74
  10101.40    9.974  2.74
  10104.14   10.035  2.74
  10106.88   10.039  2.74
  10109.62   10.034  2.74
  10112.36   10.037  2.74
  10115.10   10.057  2.74
  10117.84   10.141  2.74
  10120.58   10.070  2.74
  10123.32    9.903  2.74
  10126.06    9.937  2.74
  10128.80   10.045  2.74
  10131.54   10.128  2.74
  10134.28   10.183  2.74
  10137.02   10.184  2.74
  10139.76   10.147  2.74
  10142.50   10.055  2.74
  10145.24   10.076  2.74
  10147.98   10.143  2.74
  10150.72   10.050  2.74
  10153.46    9.970  2.74
  10156.20   10.065  2.74
  10158.94   10.084  2.74
  10161.68    9.912  2.74
  10164.42    9.914  2.74
  10167.16   10.040  2.74
  10169.90   10.089  2.74
  10172.64   10.098  2.74
  10175.38   10.021  2.74
  10178.12    9.986  2.74
  10180.86   10.111  2.74
  10183.60   10.142  2.74
  10186.34   10.034  2.74
  10189.08    9.965  2.74
  10191.82    9.951  2.74
  10194.56   10.735  2.74
  10197.30-NaN       2.74
  10200.04-NaN       2.74
  10202.78Inf        2.74
  10205.52Inf        2.74
