#HD118055                                                    
#                                                            
#  Heap-Lindler STIS                                         
# wavelength  ABmag  band
   2950.00   14.795  2.74
   2952.74   14.745  2.74
   2955.48   14.641  2.74
   2958.22   14.555  2.74
   2960.96   14.588  2.74
   2963.70   14.639  2.74
   2966.44   14.904  2.74
   2969.18   14.883  2.74
   2971.92   14.710  2.74
   2974.66   14.521  2.74
   2977.40   14.374  2.74
   2980.14   14.579  2.74
   2982.88   14.785  2.74
   2985.62   14.780  2.74
   2988.36   14.472  2.74
   2991.10   14.320  2.74
   2993.84   14.457  2.74
   2996.58   14.390  2.74
   2999.32   14.448  2.74
   3002.06   14.492  2.74
   3004.80   14.416  2.74
   3007.54   14.293  2.74
   3010.28   14.175  2.74
   3013.02   14.303  2.74
   3015.76   14.419  2.74
   3018.50   14.624  2.74
   3021.24   14.949  2.74
   3023.98   14.403  2.74
   3026.72   14.319  2.74
   3029.46   14.188  2.74
   3032.20   14.170  2.74
   3034.94   14.126  2.74
   3037.68   14.275  2.74
   3040.42   14.333  2.74
   3043.16   14.321  2.74
   3045.90   14.150  2.74
   3048.64   14.173  2.74
   3051.38   14.056  2.74
   3054.12   14.143  2.74
   3056.86   14.277  2.74
   3059.60   14.331  2.74
   3062.34   14.298  2.74
   3065.08   14.488  2.74
   3067.82   14.424  2.74
   3070.56   14.433  2.74
   3073.30   14.060  2.74
   3076.04   14.123  2.74
   3078.78   14.054  2.74
   3081.52   13.939  2.74
   3084.26   14.137  2.74
   3087.00   14.095  2.74
   3089.74   14.318  2.74
   3092.48   14.427  2.74
   3095.22   14.190  2.74
   3097.96   14.278  2.74
   3100.70   14.618  2.74
   3103.44   14.210  2.74
   3106.18   14.053  2.74
   3108.92   13.929  2.74
   3111.66   13.772  2.74
   3114.40   13.875  2.74
   3117.14   13.960  2.74
   3119.88   14.023  2.74
   3122.62   13.990  2.74
   3125.36   14.167  2.74
   3128.10   14.223  2.74
   3130.84   14.009  2.74
   3133.58   13.923  2.74
   3136.32   13.942  2.74
   3139.06   13.795  2.74
   3141.80   13.748  2.74
   3144.54   13.752  2.74
   3147.28   13.869  2.74
   3150.02   13.648  2.74
   3152.76   13.837  2.74
   3155.50   13.877  2.74
   3158.24   14.007  2.74
   3160.98   13.911  2.74
   3163.72   13.927  2.74
   3166.46   13.813  2.74
   3169.20   13.745  2.74
   3171.94   13.568  2.74
   3174.68   13.482  2.74
   3177.42   13.472  2.74
   3180.16   13.653  2.74
   3182.90   13.780  2.74
   3185.64   13.719  2.74
   3188.38   13.669  2.74
   3191.12   13.735  2.74
   3193.86   13.675  2.74
   3196.60   13.649  2.74
   3199.34   13.634  2.74
   3202.08   13.369  2.74
   3204.82   13.359  2.74
   3207.56   13.415  2.74
   3210.30   13.580  2.74
   3213.04   13.612  2.74
   3215.78   13.681  2.74
   3218.52   13.539  2.74
   3221.26   13.433  2.74
   3224.00   13.532  2.74
   3226.74   13.500  2.74
   3229.48   13.641  2.74
   3232.22   13.565  2.74
   3234.96   13.673  2.74
   3237.70   13.532  2.74
   3240.44   13.503  2.74
   3243.18   13.381  2.74
   3245.92   13.170  2.74
   3248.66   13.226  2.74
   3251.40   13.357  2.74
   3254.14   13.232  2.74
   3256.88   13.076  2.74
   3259.62   12.960  2.74
   3262.36   13.047  2.74
   3265.10   13.106  2.74
   3267.84   13.050  2.74
   3270.58   13.026  2.74
   3273.32   13.091  2.74
   3276.06   13.010  2.74
   3278.80   13.068  2.74
   3281.54   13.114  2.74
   3284.28   13.061  2.74
   3287.02   13.061  2.74
   3289.76   13.003  2.74
   3292.50   12.831  2.74
   3295.24   12.798  2.74
   3297.98   12.821  2.74
   3300.72   12.867  2.74
   3303.46   12.852  2.74
   3306.20   12.945  2.74
   3308.94   12.985  2.74
   3311.68   12.997  2.74
   3314.42   13.044  2.74
   3317.16   12.933  2.74
   3319.90   12.941  2.74
   3322.64   12.933  2.74
   3325.38   12.927  2.74
   3328.12   12.977  2.74
   3330.86   12.972  2.74
   3333.60   12.941  2.74
   3336.34   13.091  2.74
   3339.08   13.010  2.74
   3341.82   13.038  2.74
   3344.56   12.972  2.74
   3347.30   12.955  2.74
   3350.04   13.037  2.74
   3352.78   12.901  2.74
   3355.52   12.808  2.74
   3358.26   13.023  2.74
   3361.00   13.460  2.74
   3363.74   13.157  2.74
   3366.48   13.080  2.74
   3369.22   13.140  2.74
   3371.96   13.378  2.74
   3374.70   13.081  2.74
   3377.44   12.925  2.74
   3380.18   12.966  2.74
   3382.92   12.982  2.74
   3385.66   12.995  2.74
   3388.40   13.010  2.74
   3391.14   12.954  2.74
   3393.88   12.911  2.74
   3396.62   12.758  2.74
   3399.36   12.609  2.74
   3402.10   12.577  2.74
   3404.84   12.634  2.74
   3407.58   12.719  2.74
   3410.32   12.716  2.74
   3413.06   12.718  2.74
   3415.80   12.711  2.74
   3418.54   12.589  2.74
   3421.28   12.514  2.74
   3424.02   12.536  2.74
   3426.76   12.500  2.74
   3429.50   12.470  2.74
   3432.24   12.457  2.74
   3434.98   12.506  2.74
   3437.72   12.503  2.74
   3440.46   12.637  2.74
   3443.20   12.722  2.74
   3445.94   12.636  2.74
   3448.68   12.442  2.74
   3451.42   12.379  2.74
   3454.16   12.390  2.74
   3456.90   12.384  2.74
   3459.64   12.439  2.74
   3462.38   12.440  2.74
   3465.12   12.355  2.74
   3467.86   12.365  2.74
   3470.60   12.305  2.74
   3473.34   12.361  2.74
   3476.08   12.490  2.74
   3478.82   12.442  2.74
   3481.56   12.306  2.74
   3484.30   12.319  2.74
   3487.04   12.215  2.74
   3489.78   12.295  2.74
   3492.52   12.306  2.74
   3495.26   12.310  2.74
   3498.00   12.395  2.74
   3500.74   12.218  2.74
   3503.48   12.126  2.74
   3506.22   12.134  2.74
   3508.96   12.183  2.74
   3511.70   12.220  2.74
   3514.44   12.252  2.74
   3517.18   12.150  2.74
   3519.92   12.153  2.74
   3522.66   12.288  2.74
   3525.40   12.386  2.74
   3528.14   12.298  2.74
   3530.88   12.151  2.74
   3533.62   12.078  2.74
   3536.36   12.026  2.74
   3539.10   12.018  2.74
   3541.84   11.994  2.74
   3544.58   11.989  2.74
   3547.32   12.006  2.74
   3550.06   11.992  2.74
   3552.80   12.022  2.74
   3555.54   12.009  2.74
   3558.28   11.967  2.74
   3561.02   11.968  2.74
   3563.76   12.020  2.74
   3566.50   12.147  2.74
   3569.24   12.191  2.74
   3571.98   12.185  2.74
   3574.72   12.121  2.74
   3577.46   12.082  2.74
   3580.20   12.117  2.74
   3582.94   12.177  2.74
   3585.68   12.305  2.74
   3588.42   12.295  2.74
   3591.16   12.130  2.74
   3593.90   11.995  2.74
   3596.64   11.941  2.74
   3599.38   11.856  2.74
   3602.12   11.906  2.74
   3604.86   11.981  2.74
   3607.60   11.988  2.74
   3610.34   12.025  2.74
   3613.08   12.032  2.74
   3615.82   11.985  2.74
   3618.56   12.010  2.74
   3621.30   11.964  2.74
   3624.04   11.885  2.74
   3626.78   11.779  2.74
   3629.52   11.800  2.74
   3632.26   11.936  2.74
   3635.00   11.960  2.74
   3637.74   11.883  2.74
   3640.48   11.783  2.74
   3643.22   11.820  2.74
   3645.96   11.879  2.74
   3648.70   11.900  2.74
   3651.44   11.851  2.74
   3654.18   11.761  2.74
   3656.92   11.714  2.74
   3659.66   11.672  2.74
   3662.40   11.674  2.74
   3665.14   11.703  2.74
   3667.88   11.699  2.74
   3670.62   11.758  2.74
   3673.36   11.666  2.74
   3676.10   11.639  2.74
   3678.84   11.669  2.74
   3681.58   11.686  2.74
   3684.32   11.674  2.74
   3687.06   11.709  2.74
   3689.80   11.684  2.74
   3692.54   11.584  2.74
   3695.28   11.566  2.74
   3698.02   11.531  2.74
   3700.76   11.484  2.74
   3703.50   11.563  2.74
   3706.24   11.673  2.74
   3708.98   11.719  2.74
   3711.72   11.612  2.74
   3714.46   11.480  2.74
   3717.20   11.474  2.74
   3719.94   11.651  2.74
   3722.68   11.749  2.74
   3725.42   11.633  2.74
   3728.16   11.605  2.74
   3730.90   11.611  2.74
   3733.64   11.730  2.74
   3736.38   11.834  2.74
   3739.12   11.711  2.74
   3741.86   11.590  2.74
   3744.60   11.617  2.74
   3747.34   11.750  2.74
   3750.08   11.816  2.74
   3752.82   11.619  2.74
   3755.56   11.461  2.74
   3758.30   11.537  2.74
   3761.04   11.587  2.74
   3763.78   11.509  2.74
   3766.52   11.445  2.74
   3769.26   11.449  2.74
   3772.00   11.405  2.74
   3774.74   11.357  2.74
   3777.48   11.351  2.74
   3780.22   11.307  2.74
   3782.96   11.278  2.74
   3785.70   11.324  2.74
   3788.44   11.433  2.74
   3791.18   11.463  2.74
   3793.92   11.455  2.74
   3796.66   11.488  2.74
   3799.40   11.497  2.74
   3802.14   11.386  2.74
   3804.88   11.272  2.74
   3807.62   11.292  2.74
   3810.36   11.288  2.74
   3813.10   11.344  2.74
   3815.84   11.431  2.74
   3818.58   11.462  2.74
   3821.32   11.516  2.74
   3824.06   11.552  2.74
   3826.80   11.575  2.74
   3829.54   11.540  2.74
   3832.28   11.553  2.74
   3835.02   11.584  2.74
   3837.76   11.549  2.74
   3840.50   11.525  2.74
   3843.24   11.401  2.74
   3845.98   11.321  2.74
   3848.72   11.328  2.74
   3851.46   11.355  2.74
   3854.20   11.340  2.74
   3856.94   11.360  2.74
   3859.68   11.443  2.74
   3862.42   11.368  2.74
   3865.16   11.275  2.74
   3867.90   11.278  2.74
   3870.64   11.370  2.74
   3873.38   11.425  2.74
   3876.12   11.400  2.74
   3878.86   11.395  2.74
   3881.60   11.414  2.74
   3884.34   11.374  2.74
   3887.08   11.367  2.74
   3889.82   11.354  2.74
   3892.56   11.262  2.74
   3895.30   11.230  2.74
   3898.04   11.243  2.74
   3900.78   11.215  2.74
   3903.52   11.204  2.74
   3906.26   11.242  2.74
   3909.00   11.222  2.74
   3911.74   11.153  2.74
   3914.48   11.160  2.74
   3917.22   11.223  2.74
   3919.96   11.306  2.74
   3922.70   11.359  2.74
   3925.44   11.452  2.74
   3928.18   11.739  2.74
   3930.92   12.227  2.74
   3933.66   12.642  2.74
   3936.40   12.434  2.74
   3939.14   11.936  2.74
   3941.88   11.619  2.74
   3944.62   11.412  2.74
   3947.36   11.266  2.74
   3950.10   11.177  2.74
   3952.84   11.137  2.74
   3955.58   11.129  2.74
   3958.32   11.131  2.74
   3961.06   11.230  2.74
   3963.80   11.517  2.74
   3966.54   11.988  2.74
   3969.28   12.300  2.74
   3972.02   11.964  2.74
   3974.76   11.421  2.74
   3977.50   11.104  2.74
   3980.24   10.954  2.74
   3982.98   10.917  2.74
   3985.72   10.890  2.74
   3988.46   10.830  2.74
   3991.20   10.796  2.74
   3993.94   10.810  2.74
   3996.68   10.848  2.74
   3999.42   10.830  2.74
   4002.16   10.759  2.74
   4004.90   10.763  2.74
   4007.64   10.778  2.74
   4010.38   10.721  2.74
   4013.12   10.705  2.74
   4015.86   10.689  2.74
   4018.60   10.671  2.74
   4021.34   10.687  2.74
   4024.08   10.700  2.74
   4026.82   10.653  2.74
   4029.56   10.657  2.74
   4032.30   10.726  2.74
   4035.04   10.685  2.74
   4037.78   10.598  2.74
   4040.52   10.591  2.74
   4043.26   10.654  2.74
   4046.00   10.690  2.74
   4048.74   10.635  2.74
   4051.48   10.580  2.74
   4054.22   10.589  2.74
   4056.96   10.610  2.74
   4059.70   10.595  2.74
   4062.44   10.605  2.74
   4065.18   10.632  2.74
   4067.92   10.595  2.74
   4070.66   10.572  2.74
   4073.40   10.598  2.74
   4076.14   10.661  2.74
   4078.88   10.671  2.74
   4081.62   10.589  2.74
   4084.36   10.546  2.74
   4087.10   10.502  2.74
   4089.84   10.443  2.74
   4092.58   10.442  2.74
   4095.32   10.482  2.74
   4098.06   10.523  2.74
   4100.80   10.611  2.74
   4103.54   10.624  2.74
   4106.28   10.517  2.74
   4109.02   10.506  2.74
   4111.76   10.515  2.74
   4114.50   10.478  2.74
   4117.24   10.475  2.74
   4119.98   10.499  2.74
   4122.72   10.490  2.74
   4125.46   10.461  2.74
   4128.20   10.480  2.74
   4130.94   10.528  2.74
   4133.68   10.533  2.74
   4136.42   10.487  2.74
   4139.16   10.429  2.74
   4141.90   10.484  2.74
   4144.64   10.533  2.74
   4147.38   10.467  2.74
   4150.12   10.442  2.74
   4152.86   10.452  2.74
   4155.60   10.454  2.74
   4158.34   10.403  2.74
   4161.08   10.358  2.74
   4163.82   10.359  2.74
   4166.56   10.363  2.74
   4169.30   10.387  2.74
   4172.04   10.461  2.74
   4174.78   10.496  2.74
   4177.52   10.457  2.74
   4180.26   10.417  2.74
   4183.00   10.384  2.74
   4185.74   10.392  2.74
   4188.48   10.404  2.74
   4191.22   10.383  2.74
   4193.96   10.365  2.74
   4196.70   10.400  2.74
   4199.44   10.451  2.74
   4202.18   10.445  2.74
   4204.92   10.427  2.74
   4207.66   10.373  2.74
   4210.40   10.321  2.74
   4213.14   10.315  2.74
   4215.88   10.329  2.74
   4218.62   10.321  2.74
   4221.36   10.310  2.74
   4224.10   10.394  2.74
   4226.84   10.455  2.74
   4229.58   10.376  2.74
   4232.32   10.320  2.74
   4235.06   10.357  2.74
   4237.80   10.352  2.74
   4240.54   10.300  2.74
   4243.28   10.267  2.74
   4246.02   10.294  2.74
   4248.76   10.349  2.74
   4251.50   10.333  2.74
   4254.24   10.293  2.74
   4256.98   10.298  2.74
   4259.72   10.300  2.74
   4262.46   10.273  2.74
   4265.20   10.220  2.74
   4267.94   10.228  2.74
   4270.68   10.291  2.74
   4273.42   10.339  2.74
   4276.16   10.279  2.74
   4278.90   10.250  2.74
   4281.64   10.278  2.74
   4284.38   10.296  2.74
   4287.12   10.357  2.74
   4289.86   10.409  2.74
   4292.60   10.373  2.74
   4295.34   10.347  2.74
   4298.08   10.474  2.74
   4300.82   10.555  2.74
   4303.56   10.546  2.74
   4306.30   10.554  2.74
   4309.04   10.561  2.74
   4311.78   10.499  2.74
   4314.52   10.327  2.74
   4317.26   10.154  2.74
   4320.00   10.106  2.74
   4322.74   10.192  2.74
   4325.48   10.238  2.74
   4328.22   10.159  2.74
   4330.96   10.090  2.74
   4333.70   10.076  2.74
   4336.44   10.138  2.74
   4339.18   10.266  2.74
   4341.92   10.249  2.74
   4344.66   10.108  2.74
   4347.40   10.067  2.74
   4350.14   10.096  2.74
   4352.88   10.124  2.74
   4355.62   10.079  2.74
   4358.36   10.059  2.74
   4361.10   10.050  2.74
   4363.84   10.032  2.74
   4366.58   10.047  2.74
   4369.32   10.082  2.74
   4372.06   10.057  2.74
   4374.80   10.054  2.74
   4377.54   10.099  2.74
   4380.28   10.059  2.74
   4383.02   10.120  2.74
   4385.76   10.156  2.74
   4388.50   10.081  2.74
   4391.24   10.067  2.74
   4393.98   10.042  2.74
   4396.72   10.039  2.74
   4399.46   10.032  2.74
   4402.20   10.041  2.74
   4404.94   10.054  2.74
   4407.68   10.055  2.74
   4410.42   10.018  2.74
   4413.16    9.967  2.74
   4415.90    9.974  2.74
   4418.64    9.976  2.74
   4421.38    9.947  2.74
   4424.12    9.944  2.74
   4426.86    9.960  2.74
   4429.60    9.969  2.74
   4432.34    9.971  2.74
   4435.08    9.974  2.74
   4437.82    9.909  2.74
   4440.56    9.913  2.74
   4443.30    9.970  2.74
   4446.04    9.945  2.74
   4448.78    9.924  2.74
   4451.52    9.927  2.74
   4454.26    9.939  2.74
   4457.00    9.955  2.74
   4459.74    9.956  2.74
   4462.48    9.940  2.74
   4465.22    9.911  2.74
   4467.96    9.920  2.74
   4470.70    9.885  2.74
   4473.44    9.826  2.74
   4476.18    9.797  2.74
   4478.92    9.811  2.74
   4481.66    9.832  2.74
   4484.40    9.812  2.74
   4487.14    9.806  2.74
   4489.88    9.824  2.74
   4492.62    9.808  2.74
   4495.36    9.821  2.74
   4498.10    9.807  2.74
   4500.84    9.786  2.74
   4503.58    9.755  2.74
   4506.32    9.740  2.74
   4509.06    9.745  2.74
   4511.80    9.732  2.74
   4514.54    9.767  2.74
   4517.28    9.773  2.74
   4520.02    9.783  2.74
   4522.76    9.795  2.74
   4525.50    9.823  2.74
   4528.24    9.831  2.74
   4530.98    9.814  2.74
   4533.72    9.840  2.74
   4536.46    9.795  2.74
   4539.20    9.728  2.74
   4541.94    9.746  2.74
   4544.68    9.765  2.74
   4547.42    9.785  2.74
   4550.16    9.793  2.74
   4552.90    9.796  2.74
   4555.64    9.762  2.74
   4558.38    9.710  2.74
   4561.12    9.718  2.74
   4563.86    9.724  2.74
   4566.60    9.700  2.74
   4569.34    9.697  2.74
   4572.08    9.712  2.74
   4574.82    9.683  2.74
   4577.56    9.687  2.74
   4580.30    9.717  2.74
   4583.04    9.716  2.74
   4585.78    9.691  2.74
   4588.52    9.670  2.74
   4591.26    9.685  2.74
   4594.00    9.685  2.74
   4596.74    9.654  2.74
   4599.48    9.661  2.74
   4602.22    9.678  2.74
   4604.96    9.640  2.74
   4607.70    9.618  2.74
   4610.44    9.611  2.74
   4613.18    9.627  2.74
   4615.92    9.628  2.74
   4618.66    9.612  2.74
   4621.40    9.592  2.74
   4624.14    9.594  2.74
   4626.88    9.606  2.74
   4629.62    9.618  2.74
   4632.36    9.592  2.74
   4635.10    9.591  2.74
   4637.84    9.594  2.74
   4640.58    9.584  2.74
   4643.32    9.572  2.74
   4646.06    9.601  2.74
   4648.80    9.593  2.74
   4651.54    9.599  2.74
   4654.28    9.611  2.74
   4657.02    9.586  2.74
   4659.76    9.546  2.74
   4662.50    9.544  2.74
   4665.24    9.575  2.74
   4667.98    9.605  2.74
   4670.72    9.583  2.74
   4673.46    9.553  2.74
   4676.20    9.545  2.74
   4678.94    9.561  2.74
   4681.68    9.558  2.74
   4684.42    9.527  2.74
   4687.16    9.518  2.74
   4689.90    9.532  2.74
   4692.64    9.510  2.74
   4695.38    9.497  2.74
   4698.12    9.513  2.74
   4700.86    9.529  2.74
   4703.60    9.546  2.74
   4706.34    9.549  2.74
   4709.08    9.546  2.74
   4711.82    9.509  2.74
   4714.56    9.514  2.74
   4717.30    9.490  2.74
   4720.04    9.480  2.74
   4722.78    9.479  2.74
   4725.52    9.481  2.74
   4728.26    9.496  2.74
   4731.00    9.491  2.74
   4733.74    9.485  2.74
   4736.48    9.477  2.74
   4739.22    9.471  2.74
   4741.96    9.454  2.74
   4744.70    9.449  2.74
   4747.44    9.447  2.74
   4750.18    9.445  2.74
   4752.92    9.452  2.74
   4755.66    9.452  2.74
   4758.40    9.445  2.74
   4761.14    9.474  2.74
   4763.88    9.495  2.74
   4766.62    9.475  2.74
   4769.36    9.454  2.74
   4772.10    9.450  2.74
   4774.84    9.422  2.74
   4777.58    9.434  2.74
   4780.32    9.435  2.74
   4783.06    9.439  2.74
   4785.80    9.445  2.74
   4788.54    9.452  2.74
   4791.28    9.426  2.74
   4794.02    9.404  2.74
   4796.76    9.415  2.74
   4799.50    9.419  2.74
   4802.24    9.405  2.74
   4804.98    9.407  2.74
   4807.72    9.404  2.74
   4810.46    9.409  2.74
   4813.20    9.390  2.74
   4815.94    9.387  2.74
   4818.68    9.382  2.74
   4821.42    9.392  2.74
   4824.16    9.408  2.74
   4826.90    9.383  2.74
   4829.64    9.387  2.74
   4832.38    9.371  2.74
   4835.12    9.374  2.74
   4837.86    9.376  2.74
   4840.60    9.393  2.74
   4843.34    9.377  2.74
   4846.08    9.364  2.74
   4848.82    9.379  2.74
   4851.56    9.362  2.74
   4854.30    9.386  2.74
   4857.04    9.417  2.74
   4859.78    9.523  2.74
   4862.52    9.527  2.74
   4865.26    9.419  2.74
   4868.00    9.387  2.74
   4870.74    9.401  2.74
   4873.48    9.400  2.74
   4876.22    9.382  2.74
   4878.96    9.360  2.74
   4881.70    9.356  2.74
   4884.44    9.368  2.74
   4887.18    9.369  2.74
   4889.92    9.385  2.74
   4892.66    9.340  2.74
   4895.40    9.302  2.74
   4898.14    9.313  2.74
   4900.88    9.337  2.74
   4903.62    9.316  2.74
   4906.36    9.303  2.74
   4909.10    9.316  2.74
   4911.84    9.319  2.74
   4914.58    9.305  2.74
   4917.32    9.334  2.74
   4920.06    9.390  2.74
   4922.80    9.363  2.74
   4925.54    9.331  2.74
   4928.28    9.292  2.74
   4931.02    9.286  2.74
   4933.76    9.320  2.74
   4936.50    9.324  2.74
   4939.24    9.328  2.74
   4941.98    9.288  2.74
   4944.72    9.270  2.74
   4947.46    9.255  2.74
   4950.20    9.247  2.74
   4952.94    9.257  2.74
   4955.68    9.279  2.74
   4958.42    9.303  2.74
   4961.16    9.268  2.74
   4963.90    9.257  2.74
   4966.64    9.262  2.74
   4969.38    9.260  2.74
   4972.12    9.258  2.74
   4974.86    9.238  2.74
   4977.60    9.249  2.74
   4980.34    9.280  2.74
   4983.08    9.310  2.74
   4985.82    9.301  2.74
   4988.56    9.276  2.74
   4991.30    9.263  2.74
   4994.04    9.266  2.74
   4996.78    9.263  2.74
   4999.52    9.275  2.74
   5002.26    9.274  2.74
   5005.00    9.290  2.74
   5007.74    9.287  2.74
   5010.48    9.271  2.74
   5013.22    9.311  2.74
   5015.96    9.293  2.74
   5018.70    9.271  2.74
   5021.44    9.244  2.74
   5024.18    9.237  2.74
   5026.92    9.233  2.74
   5029.66    9.215  2.74
   5032.40    9.212  2.74
   5035.14    9.237  2.74
   5037.88    9.269  2.74
   5040.62    9.301  2.74
   5043.36    9.251  2.74
   5046.10    9.198  2.74
   5048.84    9.217  2.74
   5051.58    9.220  2.74
   5054.32    9.179  2.74
   5057.06    9.163  2.74
   5059.80    9.173  2.74
   5062.54    9.182  2.74
   5065.28    9.211  2.74
   5068.02    9.200  2.74
   5070.76    9.172  2.74
   5073.50    9.182  2.74
   5076.24    9.194  2.74
   5078.98    9.239  2.74
   5081.72    9.234  2.74
   5084.46    9.189  2.74
   5087.20    9.160  2.74
   5089.94    9.154  2.74
   5092.68    9.148  2.74
   5095.42    9.152  2.74
   5098.16    9.177  2.74
   5100.90    9.169  2.74
   5103.64    9.170  2.74
   5106.38    9.193  2.74
   5109.12    9.218  2.74
   5111.86    9.169  2.74
   5114.60    9.139  2.74
   5117.34    9.126  2.74
   5120.08    9.144  2.74
   5122.82    9.181  2.74
   5125.56    9.189  2.74
   5128.30    9.193  2.74
   5131.04    9.166  2.74
   5133.78    9.153  2.74
   5136.52    9.161  2.74
   5139.26    9.208  2.74
   5142.00    9.202  2.74
   5144.74    9.174  2.74
   5147.48    9.160  2.74
   5150.22    9.168  2.74
   5152.96    9.164  2.74
   5155.70    9.122  2.74
   5158.44    9.093  2.74
   5161.18    9.104  2.74
   5163.92    9.143  2.74
   5166.66    9.252  2.74
   5169.40    9.264  2.74
   5172.14    9.248  2.74
   5174.88    9.160  2.74
   5177.62    9.103  2.74
   5180.36    9.108  2.74
   5183.10    9.190  2.74
   5185.84    9.157  2.74
   5188.58    9.132  2.74
   5191.32    9.155  2.74
   5194.06    9.156  2.74
   5196.80    9.127  2.74
   5199.54    9.111  2.74
   5202.28    9.122  2.74
   5205.02    9.160  2.74
   5207.76    9.155  2.74
   5210.50    9.117  2.74
   5213.24    9.081  2.74
   5215.98    9.088  2.74
   5218.72    9.074  2.74
   5221.46    9.057  2.74
   5224.20    9.094  2.74
   5226.94    9.145  2.74
   5229.68    9.094  2.74
   5232.42    9.075  2.74
   5235.16    9.060  2.74
   5237.90    9.033  2.74
   5240.64    9.033  2.74
   5243.38    9.029  2.74
   5246.12    9.054  2.74
   5248.86    9.084  2.74
   5251.60    9.077  2.74
   5254.34    9.068  2.74
   5257.08    9.031  2.74
   5259.82    9.040  2.74
   5262.56    9.099  2.74
   5265.30    9.119  2.74
   5268.04    9.119  2.74
   5270.78    9.110  2.74
   5273.52    9.068  2.74
   5276.26    9.020  2.74
   5279.00    9.003  2.74
   5281.74    9.025  2.74
   5284.48    9.016  2.74
   5287.22    8.979  2.74
   5289.96    8.973  2.74
   5292.70    8.984  2.74
   5295.44    9.006  2.74
   5298.18    9.023  2.74
   5300.92    9.016  2.74
   5303.66    8.982  2.74
   5306.40    8.977  2.74
   5309.14    8.966  2.74
   5311.88    8.958  2.74
   5314.62    8.971  2.74
   5317.36    8.971  2.74
   5320.10    8.978  2.74
   5322.84    8.993  2.74
   5325.58    9.020  2.74
   5328.32    9.043  2.74
   5331.06    8.997  2.74
   5333.80    8.971  2.74
   5336.54    8.970  2.74
   5339.28    8.991  2.74
   5342.02    8.976  2.74
   5344.76    8.968  2.74
   5347.50    8.970  2.74
   5350.24    8.946  2.74
   5352.98    8.933  2.74
   5355.72    8.928  2.74
   5358.46    8.923  2.74
   5361.20    8.940  2.74
   5363.94    8.954  2.74
   5366.68    8.960  2.74
   5369.42    8.983  2.74
   5372.16    8.963  2.74
   5374.90    8.919  2.74
   5377.64    8.919  2.74
   5380.38    8.939  2.74
   5383.12    8.924  2.74
   5385.86    8.914  2.74
   5388.60    8.923  2.74
   5391.34    8.940  2.74
   5394.08    8.950  2.74
   5396.82    8.961  2.74
   5399.56    8.936  2.74
   5402.30    8.955  2.74
   5405.04    8.961  2.74
   5407.78    8.946  2.74
   5410.52    8.928  2.74
   5413.26    8.916  2.74
   5416.00    8.909  2.74
   5418.74    8.903  2.74
   5421.48    8.908  2.74
   5424.22    8.906  2.74
   5426.96    8.918  2.74
   5429.70    8.935  2.74
   5432.44    8.938  2.74
   5435.18    8.924  2.74
   5437.92    8.890  2.74
   5440.66    8.875  2.74
   5443.40    8.893  2.74
   5446.14    8.924  2.74
   5448.88    8.897  2.74
   5451.62    8.876  2.74
   5454.36    8.906  2.74
   5457.10    8.891  2.74
   5459.84    8.870  2.74
   5462.58    8.870  2.74
   5465.32    8.866  2.74
   5468.06    8.861  2.74
   5470.80    8.859  2.74
   5473.54    8.864  2.74
   5476.28    8.881  2.74
   5479.02    8.872  2.74
   5481.76    8.865  2.74
   5484.50    8.853  2.74
   5487.24    8.851  2.74
   5489.98    8.854  2.74
   5492.72    8.850  2.74
   5495.46    8.854  2.74
   5498.20    8.852  2.74
   5500.94    8.860  2.74
   5503.68    8.862  2.74
   5506.42    8.861  2.74
   5509.16    8.852  2.74
   5511.90    8.845  2.74
   5514.64    8.835  2.74
   5517.38    8.822  2.74
   5520.12    8.815  2.74
   5522.86    8.820  2.74
   5525.60    8.838  2.74
   5528.34    8.841  2.74
   5531.08    8.829  2.74
   5533.82    8.823  2.74
   5536.56    8.814  2.74
   5539.30    8.804  2.74
   5542.04    8.792  2.74
   5544.78    8.792  2.74
   5547.52    8.785  2.74
   5550.26    8.794  2.74
   5553.00    8.799  2.74
   5555.74    8.791  2.74
   5558.48    8.786  2.74
   5561.22    8.789  2.74
   5563.96    8.798  2.74
   5566.70    8.806  2.74
   5569.44    8.809  2.74
   5572.18    8.807  2.74
   5574.92    8.804  2.74
   5577.66    8.800  2.74
   5580.40    8.796  2.74
   5583.14    8.794  2.74
   5585.88    8.807  2.74
   5588.62    8.814  2.74
   5591.36    8.804  2.74
   5594.10    8.796  2.74
   5596.84    8.796  2.74
   5599.58    8.794  2.74
   5602.32    8.793  2.74
   5605.06    8.776  2.74
   5607.80    8.760  2.74
   5610.54    8.755  2.74
   5613.28    8.766  2.74
   5616.02    8.778  2.74
   5618.76    8.772  2.74
   5621.50    8.765  2.74
   5624.24    8.759  2.74
   5626.98    8.744  2.74
   5629.72    8.733  2.74
   5632.46    8.731  2.74
   5635.20    8.736  2.74
   5637.94    8.741  2.74
   5640.68    8.739  2.74
   5643.42    8.732  2.74
   5646.16    8.725  2.74
   5648.90    8.745  2.74
   5651.64    8.752  2.74
   5654.38    8.738  2.74
   5657.12    8.720  2.74
   5659.86    8.739  2.74
   5662.60    8.757  2.74
   5665.34    8.754  2.74
   5668.08    8.746  2.74
   5670.82    8.731  2.74
   5673.56    8.731  2.74
   5676.30    8.738  2.74
   5679.04    8.738  2.74
   5681.78    8.737  2.74
   5684.52    8.737  2.74
   5687.26    8.733  2.74
   5690.00    8.723  2.74
   5692.74    8.721  2.74
   5695.48    8.725  2.74
   5698.22    8.723  2.74
   5700.96    8.722  2.74
   5703.70    8.749  2.74
   5706.44    8.769  2.74
   5709.18    8.752  2.74
   5711.92    8.733  2.74
   5714.66    8.708  2.74
   5717.40    8.702  2.74
   5720.14    8.706  2.74
   5722.88    8.697  2.74
   5725.62    8.689  2.74
   5728.36    8.701  2.74
   5731.10    8.700  2.74
   5733.84    8.660  2.74
   5736.58    8.656  2.74
   5739.32    8.686  2.74
   5742.06    8.689  2.74
   5744.80    8.684  2.74
   5747.54    8.680  2.74
   5750.28    8.679  2.74
   5753.02    8.685  2.74
   5755.76    8.688  2.74
   5758.50    8.688  2.74
   5761.24    8.678  2.74
   5763.98    8.660  2.74
   5766.72    8.657  2.74
   5769.46    8.661  2.74
   5772.20    8.676  2.74
   5774.94    8.686  2.74
   5777.68    8.683  2.74
   5780.42    8.681  2.74
   5783.16    8.680  2.74
   5785.90    8.669  2.74
   5788.64    8.652  2.74
   5791.38    8.648  2.74
   5794.12    8.646  2.74
   5796.86    8.639  2.74
   5799.60    8.635  2.74
   5802.34    8.631  2.74
   5805.08    8.640  2.74
   5807.82    8.658  2.74
   5810.56    8.647  2.74
   5813.30    8.631  2.74
   5816.04    8.642  2.74
   5818.78    8.651  2.74
   5821.52    8.643  2.74
   5824.26    8.632  2.74
   5827.00    8.613  2.74
   5829.74    8.616  2.74
   5832.48    8.630  2.74
   5835.22    8.627  2.74
   5837.96    8.620  2.74
   5840.70    8.619  2.74
   5843.44    8.621  2.74
   5846.18    8.630  2.74
   5848.92    8.633  2.74
   5851.66    8.631  2.74
   5854.40    8.634  2.74
   5857.14    8.638  2.74
   5859.88    8.628  2.74
   5862.62    8.618  2.74
   5865.36    8.617  2.74
   5868.10    8.617  2.74
   5870.84    8.621  2.74
   5873.58    8.595  2.74
   5876.32    8.555  2.74
   5879.06    8.581  2.74
   5881.80    8.623  2.74
   5884.54    8.634  2.74
   5887.28    8.649  2.74
   5890.02    8.687  2.74
   5892.76    8.695  2.74
   5895.50    8.678  2.74
   5898.24    8.653  2.74
   5900.98    8.622  2.74
   5903.72    8.592  2.74
   5906.46    8.573  2.74
   5909.20    8.581  2.74
   5911.94    8.584  2.74
   5914.68    8.578  2.74
   5917.42    8.577  2.74
   5920.16    8.580  2.74
   5922.90    8.579  2.74
   5925.64    8.579  2.74
   5928.38    8.578  2.74
   5931.12    8.578  2.74
   5933.86    8.581  2.74
   5936.60    8.577  2.74
   5939.34    8.563  2.74
   5942.08    8.565  2.74
   5944.82    8.574  2.74
   5947.56    8.575  2.74
   5950.30    8.576  2.74
   5953.04    8.580  2.74
   5955.78    8.576  2.74
   5958.52    8.558  2.74
   5961.26    8.557  2.74
   5964.00    8.564  2.74
   5966.74    8.562  2.74
   5969.48    8.558  2.74
   5972.22    8.563  2.74
   5974.96    8.564  2.74
   5977.70    8.556  2.74
   5980.44    8.551  2.74
   5983.18    8.547  2.74
   5985.92    8.551  2.74
   5988.66    8.558  2.74
   5991.40    8.549  2.74
   5994.14    8.541  2.74
   5996.88    8.546  2.74
   5999.62    8.550  2.74
   6002.36    8.552  2.74
   6005.10    8.550  2.74
   6007.84    8.543  2.74
   6010.58    8.540  2.74
   6013.32    8.538  2.74
   6016.06    8.534  2.74
   6018.80    8.530  2.74
   6021.54    8.530  2.74
   6024.28    8.529  2.74
   6027.02    8.527  2.74
   6029.76    8.530  2.74
   6032.50    8.534  2.74
   6035.24    8.531  2.74
   6037.98    8.526  2.74
   6040.72    8.521  2.74
   6043.46    8.521  2.74
   6046.20    8.531  2.74
   6048.94    8.533  2.74
   6051.68    8.531  2.74
   6054.42    8.523  2.74
   6057.16    8.514  2.74
   6059.90    8.519  2.74
   6062.64    8.525  2.74
   6065.38    8.528  2.74
   6068.12    8.521  2.74
   6070.86    8.500  2.74
   6073.60    8.500  2.74
   6076.34    8.511  2.74
   6079.08    8.524  2.74
   6081.82    8.532  2.74
   6084.56    8.521  2.74
   6087.30    8.509  2.74
   6090.04    8.499  2.74
   6092.78    8.499  2.74
   6095.52    8.508  2.74
   6098.26    8.515  2.74
   6101.00    8.521  2.74
   6103.74    8.519  2.74
   6106.48    8.514  2.74
   6109.22    8.509  2.74
   6111.96    8.508  2.74
   6114.70    8.512  2.74
   6117.44    8.512  2.74
   6120.18    8.509  2.74
   6122.92    8.508  2.74
   6125.66    8.506  2.74
   6128.40    8.498  2.74
   6131.14    8.499  2.74
   6133.88    8.515  2.74
   6136.62    8.526  2.74
   6139.36    8.535  2.74
   6142.10    8.522  2.74
   6144.84    8.500  2.74
   6147.58    8.494  2.74
   6150.32    8.491  2.74
   6153.06    8.487  2.74
   6155.80    8.489  2.74
   6158.54    8.501  2.74
   6161.28    8.508  2.74
   6164.02    8.513  2.74
   6166.76    8.507  2.74
   6169.50    8.494  2.74
   6172.24    8.479  2.74
   6174.98    8.468  2.74
   6177.72    8.467  2.74
   6180.46    8.467  2.74
   6183.20    8.467  2.74
   6185.94    8.475  2.74
   6188.68    8.488  2.74
   6191.42    8.488  2.74
   6194.16    8.484  2.74
   6196.90    8.476  2.74
   6199.64    8.469  2.74
   6202.38    8.461  2.74
   6205.12    8.460  2.74
   6207.86    8.464  2.74
   6210.60    8.465  2.74
   6213.34    8.466  2.74
   6216.08    8.462  2.74
   6218.82    8.460  2.74
   6221.56    8.464  2.74
   6224.30    8.468  2.74
   6227.04    8.474  2.74
   6229.78    8.480  2.74
   6232.52    8.484  2.74
   6235.26    8.471  2.74
   6238.00    8.459  2.74
   6240.74    8.470  2.74
   6243.48    8.478  2.74
   6246.22    8.482  2.74
   6248.96    8.479  2.74
   6251.70    8.469  2.74
   6254.44    8.474  2.74
   6257.18    8.479  2.74
   6259.92    8.466  2.74
   6262.66    8.454  2.74
   6265.40    8.452  2.74
   6268.14    8.448  2.74
   6270.88    8.440  2.74
   6273.62    8.441  2.74
   6276.36    8.445  2.74
   6279.10    8.451  2.74
   6281.84    8.453  2.74
   6284.58    8.444  2.74
   6287.32    8.437  2.74
   6290.06    8.437  2.74
   6292.80    8.435  2.74
   6295.54    8.432  2.74
   6298.28    8.443  2.74
   6301.02    8.456  2.74
   6303.76    8.442  2.74
   6306.50    8.429  2.74
   6309.24    8.426  2.74
   6311.98    8.427  2.74
   6314.72    8.437  2.74
   6317.46    8.437  2.74
   6320.20    8.433  2.74
   6322.94    8.419  2.74
   6325.68    8.407  2.74
   6328.42    8.411  2.74
   6331.16    8.418  2.74
   6333.90    8.426  2.74
   6336.64    8.430  2.74
   6339.38    8.431  2.74
   6342.12    8.426  2.74
   6344.86    8.417  2.74
   6347.60    8.403  2.74
   6350.34    8.391  2.74
   6353.08    8.387  2.74
   6355.82    8.390  2.74
   6358.56    8.405  2.74
   6361.30    8.408  2.74
   6364.04    8.405  2.74
   6366.78    8.400  2.74
   6369.52    8.394  2.74
   6372.26    8.388  2.74
   6375.00    8.385  2.74
   6377.74    8.385  2.74
   6380.48    8.385  2.74
   6383.22    8.386  2.74
   6385.96    8.385  2.74
   6388.70    8.385  2.74
   6391.44    8.392  2.74
   6394.18    8.398  2.74
   6396.92    8.396  2.74
   6399.66    8.396  2.74
   6402.40    8.398  2.74
   6405.14    8.395  2.74
   6407.88    8.389  2.74
   6410.62    8.386  2.74
   6413.36    8.385  2.74
   6416.10    8.385  2.74
   6418.84    8.384  2.74
   6421.58    8.377  2.74
   6424.32    8.375  2.74
   6427.06    8.378  2.74
   6429.80    8.379  2.74
   6432.54    8.380  2.74
   6435.28    8.381  2.74
   6438.02    8.381  2.74
   6440.76    8.373  2.74
   6443.50    8.368  2.74
   6446.24    8.367  2.74
   6448.98    8.365  2.74
   6451.72    8.362  2.74
   6454.46    8.371  2.74
   6457.20    8.381  2.74
   6459.94    8.374  2.74
   6462.68    8.366  2.74
   6465.42    8.361  2.74
   6468.16    8.355  2.74
   6470.90    8.350  2.74
   6473.64    8.340  2.74
   6476.38    8.328  2.74
   6479.12    8.338  2.74
   6481.86    8.350  2.74
   6484.60    8.347  2.74
   6487.34    8.349  2.74
   6490.08    8.366  2.74
   6492.82    8.377  2.74
   6495.56    8.385  2.74
   6498.30    8.376  2.74
   6501.04    8.358  2.74
   6503.78    8.334  2.74
   6506.52    8.316  2.74
   6509.26    8.314  2.74
   6512.00    8.313  2.74
   6514.74    8.312  2.74
   6517.48    8.321  2.74
   6520.22    8.334  2.74
   6522.96    8.331  2.74
   6525.70    8.324  2.74
   6528.44    8.322  2.74
   6531.18    8.323  2.74
   6533.92    8.333  2.74
   6536.66    8.331  2.74
   6539.40    8.320  2.74
   6542.14    8.316  2.74
   6544.88    8.315  2.74
   6547.62    8.323  2.74
   6550.36    8.329  2.74
   6553.10    8.321  2.74
   6555.84    8.334  2.74
   6558.58    8.381  2.74
   6561.32    8.405  2.74
   6564.06    8.414  2.74
   6566.80    8.377  2.74
   6569.54    8.331  2.74
   6572.28    8.318  2.74
   6575.02    8.313  2.74
   6577.76    8.316  2.74
   6580.50    8.311  2.74
   6583.24    8.297  2.74
   6585.98    8.296  2.74
   6588.72    8.301  2.74
   6591.46    8.304  2.74
   6594.20    8.301  2.74
   6596.94    8.281  2.74
   6599.68    8.275  2.74
   6602.42    8.291  2.74
   6605.16    8.299  2.74
   6607.90    8.302  2.74
   6610.64    8.296  2.74
   6613.38    8.286  2.74
   6616.12    8.284  2.74
   6618.86    8.285  2.74
   6621.60    8.291  2.74
   6624.34    8.288  2.74
   6627.08    8.274  2.74
   6629.82    8.276  2.74
   6632.56    8.281  2.74
   6635.30    8.270  2.74
   6638.04    8.262  2.74
   6640.78    8.278  2.74
   6643.52    8.284  2.74
   6646.26    8.272  2.74
   6649.00    8.249  2.74
   6651.74    8.215  2.74
   6654.48    8.234  2.74
   6657.22    8.268  2.74
   6659.96    8.263  2.74
   6662.70    8.259  2.74
   6665.44    8.272  2.74
   6668.18    8.273  2.74
   6670.92    8.261  2.74
   6673.66    8.257  2.74
   6676.40    8.255  2.74
   6679.14    8.255  2.74
   6681.88    8.256  2.74
   6684.62    8.261  2.74
   6687.36    8.260  2.74
   6690.10    8.244  2.74
   6692.84    8.241  2.74
   6695.58    8.245  2.74
   6698.32    8.250  2.74
   6701.06    8.256  2.74
   6703.80    8.258  2.74
   6706.54    8.258  2.74
   6709.28    8.251  2.74
   6712.02    8.251  2.74
   6714.76    8.258  2.74
   6717.50    8.255  2.74
   6720.24    8.248  2.74
   6722.98    8.242  2.74
   6725.72    8.236  2.74
   6728.46    8.231  2.74
   6731.20    8.229  2.74
   6733.94    8.230  2.74
   6736.68    8.233  2.74
   6739.42    8.240  2.74
   6742.16    8.244  2.74
   6744.90    8.245  2.74
   6747.64    8.244  2.74
   6750.38    8.240  2.74
   6753.12    8.233  2.74
   6755.86    8.227  2.74
   6758.60    8.222  2.74
   6761.34    8.221  2.74
   6764.08    8.222  2.74
   6766.82    8.229  2.74
   6769.56    8.237  2.74
   6772.30    8.243  2.74
   6775.04    8.241  2.74
   6777.78    8.220  2.74
   6780.52    8.217  2.74
   6783.26    8.229  2.74
   6786.00    8.226  2.74
   6788.74    8.219  2.74
   6791.48    8.218  2.74
   6794.22    8.218  2.74
   6796.96    8.215  2.74
   6799.70    8.218  2.74
   6802.44    8.229  2.74
   6805.18    8.234  2.74
   6807.92    8.237  2.74
   6810.66    8.228  2.74
   6813.40    8.215  2.74
   6816.14    8.208  2.74
   6818.88    8.204  2.74
   6821.62    8.206  2.74
   6824.36    8.203  2.74
   6827.10    8.195  2.74
   6829.84    8.195  2.74
   6832.58    8.199  2.74
   6835.32    8.200  2.74
   6838.06    8.202  2.74
   6840.80    8.207  2.74
   6843.54    8.209  2.74
   6846.28    8.209  2.74
   6849.02    8.203  2.74
   6851.76    8.194  2.74
   6854.50    8.197  2.74
   6857.24    8.204  2.74
   6859.98    8.204  2.74
   6862.72    8.204  2.74
   6865.46    8.207  2.74
   6868.20    8.203  2.74
   6870.94    8.190  2.74
   6873.68    8.192  2.74
   6876.42    8.199  2.74
   6879.16    8.193  2.74
   6881.90    8.186  2.74
   6884.64    8.181  2.74
   6887.38    8.179  2.74
   6890.12    8.185  2.74
   6892.86    8.190  2.74
   6895.60    8.195  2.74
   6898.34    8.167  2.74
   6901.08    8.136  2.74
   6903.82    8.157  2.74
   6906.56    8.177  2.74
   6909.30    8.170  2.74
   6912.04    8.169  2.74
   6914.78    8.177  2.74
   6917.52    8.176  2.74
   6920.26    8.172  2.74
   6923.00    8.174  2.74
   6925.74    8.176  2.74
   6928.48    8.174  2.74
   6931.22    8.173  2.74
   6933.96    8.172  2.74
   6936.70    8.169  2.74
   6939.44    8.164  2.74
   6942.18    8.168  2.74
   6944.92    8.175  2.74
   6947.66    8.183  2.74
   6950.40    8.185  2.74
   6953.14    8.174  2.74
   6955.88    8.167  2.74
   6958.62    8.164  2.74
   6961.36    8.164  2.74
   6964.10    8.165  2.74
   6966.84    8.165  2.74
   6969.58    8.163  2.74
   6972.32    8.159  2.74
   6975.06    8.159  2.74
   6977.80    8.168  2.74
   6980.54    8.167  2.74
   6983.28    8.159  2.74
   6986.02    8.155  2.74
   6988.76    8.151  2.74
   6991.50    8.144  2.74
   6994.24    8.139  2.74
   6996.98    8.137  2.74
   6999.72    8.137  2.74
   7002.46    8.139  2.74
   7005.20    8.142  2.74
   7007.94    8.146  2.74
   7010.68    8.149  2.74
   7013.42    8.150  2.74
   7016.16    8.140  2.74
   7018.90    8.137  2.74
   7021.64    8.151  2.74
   7024.38    8.153  2.74
   7027.12    8.144  2.74
   7029.86    8.142  2.74
   7032.60    8.142  2.74
   7035.34    8.141  2.74
   7038.08    8.139  2.74
   7040.82    8.132  2.74
   7043.56    8.131  2.74
   7046.30    8.138  2.74
   7049.04    8.140  2.74
   7051.78    8.140  2.74
   7054.52    8.132  2.74
   7057.26    8.124  2.74
   7060.00    8.124  2.74
   7062.74    8.128  2.74
   7065.48    8.138  2.74
   7068.22    8.138  2.74
   7070.96    8.127  2.74
   7073.70    8.128  2.74
   7076.44    8.133  2.74
   7079.18    8.134  2.74
   7081.92    8.135  2.74
   7084.66    8.135  2.74
   7087.40    8.133  2.74
   7090.14    8.128  2.74
   7092.88    8.122  2.74
   7095.62    8.115  2.74
   7098.36    8.112  2.74
   7101.10    8.112  2.74
   7103.84    8.118  2.74
   7106.58    8.125  2.74
   7109.32    8.131  2.74
   7112.06    8.133  2.74
   7114.80    8.130  2.74
   7117.54    8.131  2.74
   7120.28    8.133  2.74
   7123.02    8.131  2.74
   7125.76    8.126  2.74
   7128.50    8.115  2.74
   7131.24    8.109  2.74
   7133.98    8.111  2.74
   7136.72    8.113  2.74
   7139.46    8.116  2.74
   7142.20    8.115  2.74
   7144.94    8.112  2.74
   7147.68    8.109  2.74
   7150.42    8.107  2.74
   7153.16    8.105  2.74
   7155.90    8.104  2.74
   7158.64    8.103  2.74
   7161.38    8.107  2.74
   7164.12    8.113  2.74
   7166.86    8.118  2.74
   7169.60    8.119  2.74
   7172.34    8.106  2.74
   7175.08    8.100  2.74
   7177.82    8.106  2.74
   7180.56    8.110  2.74
   7183.30    8.116  2.74
   7186.04    8.111  2.74
   7188.78    8.103  2.74
   7191.52    8.104  2.74
   7194.26    8.104  2.74
   7197.00    8.100  2.74
   7199.74    8.097  2.74
   7202.48    8.098  2.74
   7205.22    8.103  2.74
   7207.96    8.111  2.74
   7210.70    8.101  2.74
   7213.44    8.089  2.74
   7216.18    8.095  2.74
   7218.92    8.098  2.74
   7221.66    8.093  2.74
   7224.40    8.089  2.74
   7227.14    8.085  2.74
   7229.88    8.082  2.74
   7232.62    8.080  2.74
   7235.36    8.076  2.74
   7238.10    8.076  2.74
   7240.84    8.086  2.74
   7243.58    8.087  2.74
   7246.32    8.074  2.74
   7249.06    8.071  2.74
   7251.80    8.073  2.74
   7254.54    8.070  2.74
   7257.28    8.069  2.74
   7260.02    8.079  2.74
   7262.76    8.085  2.74
   7265.50    8.080  2.74
   7268.24    8.073  2.74
   7270.98    8.064  2.74
   7273.72    8.059  2.74
   7276.46    8.057  2.74
   7279.20    8.065  2.74
   7281.94    8.071  2.74
   7284.68    8.068  2.74
   7287.42    8.064  2.74
   7290.16    8.058  2.74
   7292.90    8.056  2.74
   7295.64    8.057  2.74
   7298.38    8.059  2.74
   7301.12    8.062  2.74
   7303.86    8.065  2.74
   7306.60    8.065  2.74
   7309.34    8.061  2.74
   7312.08    8.058  2.74
   7314.82    8.056  2.74
   7317.56    8.057  2.74
   7320.30    8.060  2.74
   7323.04    8.064  2.74
   7325.78    8.066  2.74
   7328.52    8.067  2.74
   7331.26    8.064  2.74
   7334.00    8.055  2.74
   7336.74    8.049  2.74
   7339.48    8.044  2.74
   7342.22    8.043  2.74
   7344.96    8.045  2.74
   7347.70    8.053  2.74
   7350.44    8.058  2.74
   7353.18    8.055  2.74
   7355.92    8.051  2.74
   7358.66    8.046  2.74
   7361.40    8.043  2.74
   7364.14    8.040  2.74
   7366.88    8.045  2.74
   7369.62    8.049  2.74
   7372.36    8.046  2.74
   7375.10    8.045  2.74
   7377.84    8.047  2.74
   7380.58    8.046  2.74
   7383.32    8.042  2.74
   7386.06    8.036  2.74
   7388.80    8.032  2.74
   7391.54    8.034  2.74
   7394.28    8.038  2.74
   7397.02    8.039  2.74
   7399.76    8.040  2.74
   7402.50    8.041  2.74
   7405.24    8.046  2.74
   7407.98    8.053  2.74
   7410.72    8.059  2.74
   7413.46    8.065  2.74
   7416.20    8.070  2.74
   7418.94    8.070  2.74
   7421.68    8.061  2.74
   7424.42    8.050  2.74
   7427.16    8.035  2.74
   7429.90    8.030  2.74
   7432.64    8.029  2.74
   7435.38    8.026  2.74
   7438.12    8.026  2.74
   7440.86    8.038  2.74
   7443.60    8.044  2.74
   7446.34    8.046  2.74
   7449.08    8.036  2.74
   7451.82    8.018  2.74
   7454.56    8.016  2.74
   7457.30    8.021  2.74
   7460.04    8.022  2.74
   7462.78    8.022  2.74
   7465.52    8.019  2.74
   7468.26    8.019  2.74
   7471.00    8.022  2.74
   7473.74    8.019  2.74
   7476.48    8.015  2.74
   7479.22    8.017  2.74
   7481.96    8.019  2.74
   7484.70    8.011  2.74
   7487.44    8.008  2.74
   7490.18    8.012  2.74
   7492.92    8.017  2.74
   7495.66    8.024  2.74
   7498.40    8.023  2.74
   7501.14    8.020  2.74
   7503.88    8.011  2.74
   7506.62    8.008  2.74
   7509.36    8.020  2.74
   7512.10    8.021  2.74
   7514.84    8.010  2.74
   7517.58    8.005  2.74
   7520.32    8.003  2.74
   7523.06    8.010  2.74
   7525.80    8.015  2.74
   7528.54    8.008  2.74
   7531.28    8.002  2.74
   7534.02    8.000  2.74
   7536.76    7.997  2.74
   7539.50    7.992  2.74
   7542.24    7.996  2.74
   7544.98    8.002  2.74
   7547.72    7.999  2.74
   7550.46    7.999  2.74
   7553.20    8.009  2.74
   7555.94    8.012  2.74
   7558.68    8.009  2.74
   7561.42    8.007  2.74
   7564.16    8.004  2.74
   7566.90    8.000  2.74
   7569.64    7.996  2.74
   7572.38    7.991  2.74
   7575.12    7.989  2.74
   7577.86    7.996  2.74
   7580.60    7.997  2.74
   7583.34    7.995  2.74
   7586.08    7.991  2.74
   7588.82    7.987  2.74
   7591.56    7.983  2.74
   7594.30    7.980  2.74
   7597.04    7.976  2.74
   7599.78    7.978  2.74
   7602.52    7.987  2.74
   7605.26    7.991  2.74
   7608.00    7.993  2.74
   7610.74    7.991  2.74
   7613.48    7.990  2.74
   7616.22    8.000  2.74
   7618.96    8.001  2.74
   7621.70    7.982  2.74
   7624.44    7.976  2.74
   7627.18    7.978  2.74
   7629.92    7.978  2.74
   7632.66    7.977  2.74
   7635.40    7.971  2.74
   7638.14    7.967  2.74
   7640.88    7.973  2.74
   7643.62    7.976  2.74
   7646.36    7.975  2.74
   7649.10    7.976  2.74
   7651.84    7.979  2.74
   7654.58    7.987  2.74
   7657.32    7.996  2.74
   7660.06    7.999  2.74
   7662.80    8.002  2.74
   7665.54    8.013  2.74
   7668.28    8.008  2.74
   7671.02    7.987  2.74
   7673.76    7.977  2.74
   7676.50    7.972  2.74
   7679.24    7.972  2.74
   7681.98    7.972  2.74
   7684.72    7.968  2.74
   7687.46    7.969  2.74
   7690.20    7.984  2.74
   7692.94    7.985  2.74
   7695.68    7.979  2.74
   7698.42    7.981  2.74
   7701.16    7.985  2.74
   7703.90    7.989  2.74
   7706.64    7.989  2.74
   7709.38    7.979  2.74
   7712.12    7.975  2.74
   7714.86    7.978  2.74
   7717.60    7.973  2.74
   7720.34    7.965  2.74
   7723.08    7.963  2.74
   7725.82    7.960  2.74
   7728.56    7.955  2.74
   7731.30    7.950  2.74
   7734.04    7.943  2.74
   7736.78    7.943  2.74
   7739.52    7.947  2.74
   7742.26    7.959  2.74
   7745.00    7.975  2.74
   7747.74    7.985  2.74
   7750.48    7.988  2.74
   7753.22    7.977  2.74
   7755.96    7.967  2.74
   7758.70    7.955  2.74
   7761.44    7.951  2.74
   7764.18    7.950  2.74
   7766.92    7.950  2.74
   7769.66    7.950  2.74
   7772.40    7.951  2.74
   7775.14    7.950  2.74
   7777.88    7.944  2.74
   7780.62    7.948  2.74
   7783.36    7.959  2.74
   7786.10    7.960  2.74
   7788.84    7.958  2.74
   7791.58    7.956  2.74
   7794.32    7.956  2.74
   7797.06    7.959  2.74
   7799.80    7.958  2.74
   7802.54    7.954  2.74
   7805.28    7.950  2.74
   7808.02    7.946  2.74
   7810.76    7.944  2.74
   7813.50    7.941  2.74
   7816.24    7.933  2.74
   7818.98    7.929  2.74
   7821.72    7.936  2.74
   7824.46    7.938  2.74
   7827.20    7.937  2.74
   7829.94    7.936  2.74
   7832.68    7.933  2.74
   7835.42    7.933  2.74
   7838.16    7.932  2.74
   7840.90    7.927  2.74
   7843.64    7.926  2.74
   7846.38    7.932  2.74
   7849.12    7.934  2.74
   7851.86    7.935  2.74
   7854.60    7.935  2.74
   7857.34    7.934  2.74
   7860.08    7.935  2.74
   7862.82    7.938  2.74
   7865.56    7.945  2.74
   7868.30    7.945  2.74
   7871.04    7.939  2.74
   7873.78    7.940  2.74
   7876.52    7.943  2.74
   7879.26    7.941  2.74
   7882.00    7.936  2.74
   7884.74    7.931  2.74
   7887.48    7.924  2.74
   7890.22    7.912  2.74
   7892.96    7.906  2.74
   7895.70    7.903  2.74
   7898.44    7.905  2.74
   7901.18    7.911  2.74
   7903.92    7.920  2.74
   7906.66    7.926  2.74
   7909.40    7.923  2.74
   7912.14    7.925  2.74
   7914.88    7.931  2.74
   7917.62    7.927  2.74
   7920.36    7.918  2.74
   7923.10    7.923  2.74
   7925.84    7.929  2.74
   7928.58    7.928  2.74
   7931.32    7.927  2.74
   7934.06    7.924  2.74
   7936.80    7.926  2.74
   7939.54    7.931  2.74
   7942.28    7.930  2.74
   7945.02    7.925  2.74
   7947.76    7.909  2.74
   7950.50    7.906  2.74
   7953.24    7.938  2.74
   7955.98    7.937  2.74
   7958.72    7.898  2.74
   7961.46    7.896  2.74
   7964.20    7.907  2.74
   7966.94    7.884  2.74
   7969.68    7.868  2.74
   7972.42    7.900  2.74
   7975.16    7.919  2.74
   7977.90    7.910  2.74
   7980.64    7.905  2.74
   7983.38    7.899  2.74
   7986.12    7.900  2.74
   7988.86    7.899  2.74
   7991.60    7.874  2.74
   7994.34    7.864  2.74
   7997.08    7.897  2.74
   7999.82    7.911  2.74
   8002.56    7.903  2.74
   8005.30    7.903  2.74
   8008.04    7.905  2.74
   8010.78    7.901  2.74
   8013.52    7.898  2.74
   8016.26    7.901  2.74
   8019.00    7.904  2.74
   8021.74    7.905  2.74
   8024.48    7.902  2.74
   8027.22    7.895  2.74
   8029.96    7.897  2.74
   8032.70    7.901  2.74
   8035.44    7.893  2.74
   8038.18    7.889  2.74
   8040.92    7.895  2.74
   8043.66    7.899  2.74
   8046.40    7.902  2.74
   8049.14    7.896  2.74
   8051.88    7.885  2.74
   8054.62    7.879  2.74
   8057.36    7.876  2.74
   8060.10    7.878  2.74
   8062.84    7.882  2.74
   8065.58    7.895  2.74
   8068.32    7.893  2.74
   8071.06    7.879  2.74
   8073.80    7.877  2.74
   8076.54    7.879  2.74
   8079.28    7.885  2.74
   8082.02    7.891  2.74
   8084.76    7.890  2.74
   8087.50    7.886  2.74
   8090.24    7.873  2.74
   8092.98    7.873  2.74
   8095.72    7.880  2.74
   8098.46    7.880  2.74
   8101.20    7.878  2.74
   8103.94    7.873  2.74
   8106.68    7.872  2.74
   8109.42    7.885  2.74
   8112.16    7.884  2.74
   8114.90    7.869  2.74
   8117.64    7.872  2.74
   8120.38    7.881  2.74
   8123.12    7.881  2.74
   8125.86    7.879  2.74
   8128.60    7.875  2.74
   8131.34    7.874  2.74
   8134.08    7.880  2.74
   8136.82    7.880  2.74
   8139.56    7.877  2.74
   8142.30    7.868  2.74
   8145.04    7.858  2.74
   8147.78    7.854  2.74
   8150.52    7.854  2.74
   8153.26    7.865  2.74
   8156.00    7.867  2.74
   8158.74    7.860  2.74
   8161.48    7.859  2.74
   8164.22    7.858  2.74
   8166.96    7.853  2.74
   8169.70    7.848  2.74
   8172.44    7.850  2.74
   8175.18    7.855  2.74
   8177.92    7.863  2.74
   8180.66    7.867  2.74
   8183.40    7.869  2.74
   8186.14    7.868  2.74
   8188.88    7.866  2.74
   8191.62    7.862  2.74
   8194.36    7.864  2.74
   8197.10    7.887  2.74
   8199.84    7.888  2.74
   8202.58    7.861  2.74
   8205.32    7.854  2.74
   8208.06    7.854  2.74
   8210.80    7.855  2.74
   8213.54    7.859  2.74
   8216.28    7.867  2.74
   8219.02    7.869  2.74
   8221.76    7.858  2.74
   8224.50    7.851  2.74
   8227.24    7.844  2.74
   8229.98    7.845  2.74
   8232.72    7.850  2.74
   8235.46    7.861  2.74
   8238.20    7.867  2.74
   8240.94    7.858  2.74
   8243.68    7.851  2.74
   8246.42    7.847  2.74
   8249.16    7.852  2.74
   8251.90    7.863  2.74
   8254.64    7.849  2.74
   8257.38    7.835  2.74
   8260.12    7.845  2.74
   8262.86    7.850  2.74
   8265.60    7.842  2.74
   8268.34    7.839  2.74
   8271.08    7.839  2.74
   8273.82    7.837  2.74
   8276.56    7.838  2.74
   8279.30    7.852  2.74
   8282.04    7.861  2.74
   8284.78    7.848  2.74
   8287.52    7.841  2.74
   8290.26    7.840  2.74
   8293.00    7.847  2.74
   8295.74    7.860  2.74
   8298.48    7.856  2.74
   8301.22    7.849  2.74
   8303.96    7.847  2.74
   8306.70    7.846  2.74
   8309.44    7.848  2.74
   8312.18    7.844  2.74
   8314.92    7.833  2.74
   8317.66    7.828  2.74
   8320.40    7.827  2.74
   8323.14    7.839  2.74
   8325.88    7.852  2.74
   8328.62    7.863  2.74
   8331.36    7.862  2.74
   8334.10    7.844  2.74
   8336.84    7.832  2.74
   8339.58    7.821  2.74
   8342.32    7.822  2.74
   8345.06    7.827  2.74
   8347.80    7.821  2.74
   8350.54    7.819  2.74
   8353.28    7.825  2.74
   8356.02    7.833  2.74
   8358.76    7.843  2.74
   8361.50    7.854  2.74
   8364.24    7.863  2.74
   8366.98    7.855  2.74
   8369.72    7.845  2.74
   8372.46    7.844  2.74
   8375.20    7.844  2.74
   8377.94    7.845  2.74
   8380.68    7.840  2.74
   8383.42    7.830  2.74
   8386.16    7.830  2.74
   8388.90    7.833  2.74
   8391.64    7.842  2.74
   8394.38    7.845  2.74
   8397.12    7.833  2.74
   8399.86    7.825  2.74
   8402.60    7.821  2.74
   8405.34    7.819  2.74
   8408.08    7.821  2.74
   8410.82    7.826  2.74
   8413.56    7.831  2.74
   8416.30    7.830  2.74
   8419.04    7.832  2.74
   8421.78    7.842  2.74
   8424.52    7.838  2.74
   8427.26    7.824  2.74
   8430.00    7.823  2.74
   8432.74    7.825  2.74
   8435.48    7.817  2.74
   8438.22    7.810  2.74
   8440.96    7.808  2.74
   8443.70    7.803  2.74
   8446.44    7.795  2.74
   8449.18    7.795  2.74
   8451.92    7.798  2.74
   8454.66    7.799  2.74
   8457.40    7.800  2.74
   8460.14    7.797  2.74
   8462.88    7.802  2.74
   8465.62    7.823  2.74
   8468.36    7.827  2.74
   8471.10    7.817  2.74
   8473.84    7.815  2.74
   8476.58    7.815  2.74
   8479.32    7.811  2.74
   8482.06    7.813  2.74
   8484.80    7.832  2.74
   8487.54    7.848  2.74
   8490.28    7.861  2.74
   8493.02    7.876  2.74
   8495.76    7.891  2.74
   8498.50    7.880  2.74
   8501.24    7.858  2.74
   8503.98    7.833  2.74
   8506.72    7.815  2.74
   8509.46    7.808  2.74
   8512.20    7.809  2.74
   8514.94    7.819  2.74
   8517.68    7.803  2.74
   8520.42    7.781  2.74
   8523.16    7.788  2.74
   8525.90    7.806  2.74
   8528.64    7.826  2.74
   8531.38    7.853  2.74
   8534.12    7.886  2.74
   8536.86    7.941  2.74
   8539.60    8.011  2.74
   8542.34    7.999  2.74
   8545.08    7.951  2.74
   8547.82    7.888  2.74
   8550.56    7.843  2.74
   8553.30    7.831  2.74
   8556.04    7.821  2.74
   8558.78    7.814  2.74
   8561.52    7.813  2.74
   8564.26    7.814  2.74
   8567.00    7.810  2.74
   8569.74    7.804  2.74
   8572.48    7.793  2.74
   8575.22    7.790  2.74
   8577.96    7.802  2.74
   8580.70    7.799  2.74
   8583.44    7.788  2.74
   8586.18    7.781  2.74
   8588.92    7.775  2.74
   8591.66    7.765  2.74
   8594.40    7.762  2.74
   8597.14    7.777  2.74
   8599.88    7.783  2.74
   8602.62    7.782  2.74
   8605.36    7.780  2.74
   8608.10    7.778  2.74
   8610.84    7.775  2.74
   8613.58    7.769  2.74
   8616.32    7.754  2.74
   8619.06    7.752  2.74
   8621.80    7.779  2.74
   8624.54    7.778  2.74
   8627.28    7.759  2.74
   8630.02    7.767  2.74
   8632.76    7.782  2.74
   8635.50    7.787  2.74
   8638.24    7.786  2.74
   8640.98    7.777  2.74
   8643.72    7.777  2.74
   8646.46    7.790  2.74
   8649.20    7.798  2.74
   8651.94    7.811  2.74
   8654.68    7.858  2.74
   8657.42    7.908  2.74
   8660.16    7.940  2.74
   8662.90    7.928  2.74
   8665.64    7.844  2.74
   8668.38    7.804  2.74
   8671.12    7.789  2.74
   8673.86    7.774  2.74
   8676.60    7.765  2.74
   8679.34    7.759  2.74
   8682.08    7.758  2.74
   8684.82    7.766  2.74
   8687.56    7.770  2.74
   8690.30    7.768  2.74
   8693.04    7.763  2.74
   8695.78    7.757  2.74
   8698.52    7.758  2.74
   8701.26    7.761  2.74
   8704.00    7.761  2.74
   8706.74    7.762  2.74
   8709.48    7.768  2.74
   8712.22    7.770  2.74
   8714.96    7.768  2.74
   8717.70    7.767  2.74
   8720.44    7.765  2.74
   8723.18    7.760  2.74
   8725.92    7.757  2.74
   8728.66    7.766  2.74
   8731.40    7.765  2.74
   8734.14    7.746  2.74
   8736.88    7.739  2.74
   8739.62    7.737  2.74
   8742.36    7.742  2.74
   8745.10    7.750  2.74
   8747.84    7.755  2.74
   8750.58    7.758  2.74
   8753.32    7.760  2.74
   8756.06    7.763  2.74
   8758.80    7.770  2.74
   8761.54    7.772  2.74
   8764.28    7.772  2.74
   8767.02    7.765  2.74
   8769.76    7.754  2.74
   8772.50    7.739  2.74
   8775.24    7.735  2.74
   8777.98    7.746  2.74
   8780.72    7.758  2.74
   8783.46    7.772  2.74
   8786.20    7.761  2.74
   8788.94    7.744  2.74
   8791.68    7.739  2.74
   8794.42    7.738  2.74
   8797.16    7.742  2.74
   8799.90    7.738  2.74
   8802.64    7.723  2.74
   8805.38    7.733  2.74
   8808.12    7.753  2.74
   8810.86    7.753  2.74
   8813.60    7.751  2.74
   8816.34    7.759  2.74
   8819.08    7.766  2.74
   8821.82    7.775  2.74
   8824.56    7.773  2.74
   8827.30    7.763  2.74
   8830.04    7.748  2.74
   8832.78    7.736  2.74
   8835.52    7.744  2.74
   8838.26    7.748  2.74
   8841.00    7.736  2.74
   8843.74    7.731  2.74
   8846.48    7.732  2.74
   8849.22    7.740  2.74
   8851.96    7.751  2.74
   8854.70    7.754  2.74
   8857.44    7.755  2.74
   8860.18    7.765  2.74
   8862.92    7.764  2.74
   8865.66    7.741  2.74
   8868.40    7.728  2.74
   8871.14    7.720  2.74
   8873.88    7.722  2.74
   8876.62    7.726  2.74
   8879.36    7.719  2.74
   8882.10    7.716  2.74
   8884.84    7.730  2.74
   8887.58    7.739  2.74
   8890.32    7.740  2.74
   8893.06    7.752  2.74
   8895.80    7.765  2.74
   8898.54    7.748  2.74
   8901.28    7.729  2.74
   8904.02    7.737  2.74
   8906.76    7.740  2.74
   8909.50    7.729  2.74
   8912.24    7.718  2.74
   8914.98    7.705  2.74
   8917.72    7.702  2.74
   8920.46    7.706  2.74
   8923.20    7.719  2.74
   8925.94    7.729  2.74
   8928.68    7.725  2.74
   8931.42    7.729  2.74
   8934.16    7.748  2.74
   8936.90    7.751  2.74
   8939.64    7.744  2.74
   8942.38    7.750  2.74
   8945.12    7.755  2.74
   8947.86    7.741  2.74
   8950.60    7.731  2.74
   8953.34    7.736  2.74
   8956.08    7.727  2.74
   8958.82    7.706  2.74
   8961.56    7.699  2.74
   8964.30    7.697  2.74
   8967.04    7.694  2.74
   8969.78    7.698  2.74
   8972.52    7.719  2.74
   8975.26    7.733  2.74
   8978.00    7.737  2.74
   8980.74    7.729  2.74
   8983.48    7.711  2.74
   8986.22    7.708  2.74
   8988.96    7.707  2.74
   8991.70    7.694  2.74
   8994.44    7.688  2.74
   8997.18    7.700  2.74
   8999.92    7.704  2.74
   9002.66    7.702  2.74
   9005.40    7.708  2.74
   9008.14    7.717  2.74
   9010.88    7.722  2.74
   9013.62    7.725  2.74
   9016.36    7.720  2.74
   9019.10    7.715  2.74
   9021.84    7.713  2.74
   9024.58    7.708  2.74
   9027.32    7.700  2.74
   9030.06    7.703  2.74
   9032.80    7.707  2.74
   9035.54    7.704  2.74
   9038.28    7.698  2.74
   9041.02    7.685  2.74
   9043.76    7.682  2.74
   9046.50    7.692  2.74
   9049.24    7.690  2.74
   9051.98    7.684  2.74
   9054.72    7.692  2.74
   9057.46    7.700  2.74
   9060.20    7.695  2.74
   9062.94    7.690  2.74
   9065.68    7.683  2.74
   9068.42    7.693  2.74
   9071.16    7.718  2.74
   9073.90    7.699  2.74
   9076.64    7.672  2.74
   9079.38    7.685  2.74
   9082.12    7.699  2.74
   9084.86    7.698  2.74
   9087.60    7.701  2.74
   9090.34    7.709  2.74
   9093.08    7.710  2.74
   9095.82    7.707  2.74
   9098.56    7.699  2.74
   9101.30    7.691  2.74
   9104.04    7.688  2.74
   9106.78    7.685  2.74
   9109.52    7.682  2.74
   9112.26    7.685  2.74
   9115.00    7.694  2.74
   9117.74    7.690  2.74
   9120.48    7.682  2.74
   9123.22    7.684  2.74
   9125.96    7.686  2.74
   9128.70    7.682  2.74
   9131.44    7.676  2.74
   9134.18    7.664  2.74
   9136.92    7.663  2.74
   9139.66    7.668  2.74
   9142.40    7.676  2.74
   9145.14    7.688  2.74
   9147.88    7.711  2.74
   9150.62    7.719  2.74
   9153.36    7.694  2.74
   9156.10    7.687  2.74
   9158.84    7.694  2.74
   9161.58    7.692  2.74
   9164.32    7.688  2.74
   9167.06    7.689  2.74
   9169.80    7.688  2.74
   9172.54    7.678  2.74
   9175.28    7.675  2.74
   9178.02    7.683  2.74
   9180.76    7.680  2.74
   9183.50    7.672  2.74
   9186.24    7.670  2.74
   9188.98    7.672  2.74
   9191.72    7.679  2.74
   9194.46    7.685  2.74
   9197.20    7.685  2.74
   9199.94    7.678  2.74
   9202.68    7.661  2.74
   9205.42    7.676  2.74
   9208.16    7.705  2.74
   9210.90    7.713  2.74
   9213.64    7.714  2.74
   9216.38    7.715  2.74
   9219.12    7.709  2.74
   9221.86    7.687  2.74
   9224.60    7.685  2.74
   9227.34    7.693  2.74
   9230.08    7.690  2.74
   9232.82    7.684  2.74
   9235.56    7.686  2.74
   9238.30    7.681  2.74
   9241.04    7.655  2.74
   9243.78    7.654  2.74
   9246.52    7.683  2.74
   9249.26    7.688  2.74
   9252.00    7.683  2.74
   9254.74    7.675  2.74
   9257.48    7.666  2.74
   9260.22    7.662  2.74
   9262.96    7.662  2.74
   9265.70    7.670  2.74
   9268.44    7.673  2.74
   9271.18    7.674  2.74
   9273.92    7.662  2.74
   9276.66    7.652  2.74
   9279.40    7.678  2.74
   9282.14    7.695  2.74
   9284.88    7.676  2.74
   9287.62    7.665  2.74
   9290.36    7.660  2.74
   9293.10    7.670  2.74
   9295.84    7.687  2.74
   9298.58    7.690  2.74
   9301.32    7.688  2.74
   9304.06    7.678  2.74
   9306.80    7.671  2.74
   9309.54    7.669  2.74
   9312.28    7.671  2.74
   9315.02    7.675  2.74
   9317.76    7.671  2.74
   9320.50    7.664  2.74
   9323.24    7.662  2.74
   9325.98    7.658  2.74
   9328.72    7.647  2.74
   9331.46    7.641  2.74
   9334.20    7.640  2.74
   9336.94    7.637  2.74
   9339.68    7.633  2.74
   9342.42    7.632  2.74
   9345.16    7.636  2.74
   9347.90    7.651  2.74
   9350.64    7.664  2.74
   9353.38    7.676  2.74
   9356.12    7.676  2.74
   9358.86    7.666  2.74
   9361.60    7.665  2.74
   9364.34    7.667  2.74
   9367.08    7.666  2.74
   9369.82    7.666  2.74
   9372.56    7.674  2.74
   9375.30    7.679  2.74
   9378.04    7.682  2.74
   9380.78    7.685  2.74
   9383.52    7.689  2.74
   9386.26    7.685  2.74
   9389.00    7.677  2.74
   9391.74    7.668  2.74
   9394.48    7.663  2.74
   9397.22    7.664  2.74
   9399.96    7.663  2.74
   9402.70    7.661  2.74
   9405.44    7.658  2.74
   9408.18    7.655  2.74
   9410.92    7.653  2.74
   9413.66    7.653  2.74
   9416.40    7.656  2.74
   9419.14    7.654  2.74
   9421.88    7.643  2.74
   9424.62    7.645  2.74
   9427.36    7.654  2.74
   9430.10    7.651  2.74
   9432.84    7.649  2.74
   9435.58    7.660  2.74
   9438.32    7.669  2.74
   9441.06    7.673  2.74
   9443.80    7.669  2.74
   9446.54    7.658  2.74
   9449.28    7.647  2.74
   9452.02    7.637  2.74
   9454.76    7.651  2.74
   9457.50    7.666  2.74
   9460.24    7.663  2.74
   9462.98    7.662  2.74
   9465.72    7.662  2.74
   9468.46    7.665  2.74
   9471.20    7.671  2.74
   9473.94    7.670  2.74
   9476.68    7.668  2.74
   9479.42    7.675  2.74
   9482.16    7.676  2.74
   9484.90    7.660  2.74
   9487.64    7.658  2.74
   9490.38    7.670  2.74
   9493.12    7.674  2.74
   9495.86    7.673  2.74
   9498.60    7.659  2.74
   9501.34    7.646  2.74
   9504.08    7.647  2.74
   9506.82    7.650  2.74
   9509.56    7.660  2.74
   9512.30    7.659  2.74
   9515.04    7.650  2.74
   9517.78    7.637  2.74
   9520.52    7.626  2.74
   9523.26    7.632  2.74
   9526.00    7.639  2.74
   9528.74    7.644  2.74
   9531.48    7.641  2.74
   9534.22    7.627  2.74
   9536.96    7.629  2.74
   9539.70    7.641  2.74
   9542.44    7.656  2.74
   9545.18    7.668  2.74
   9547.92    7.663  2.74
   9550.66    7.656  2.74
   9553.40    7.650  2.74
   9556.14    7.646  2.74
   9558.88    7.644  2.74
   9561.62    7.653  2.74
   9564.36    7.665  2.74
   9567.10    7.666  2.74
   9569.84    7.662  2.74
   9572.58    7.652  2.74
   9575.32    7.645  2.74
   9578.06    7.645  2.74
   9580.80    7.637  2.74
   9583.54    7.626  2.74
   9586.28    7.626  2.74
   9589.02    7.631  2.74
   9591.76    7.641  2.74
   9594.50    7.649  2.74
   9597.24    7.654  2.74
   9599.98    7.650  2.74
   9602.72    7.638  2.74
   9605.46    7.636  2.74
   9608.20    7.637  2.74
   9610.94    7.632  2.74
   9613.68    7.629  2.74
   9616.42    7.632  2.74
   9619.16    7.623  2.74
   9621.90    7.587  2.74
   9624.64    7.604  2.74
   9627.38    7.652  2.74
   9630.12    7.648  2.74
   9632.86    7.632  2.74
   9635.60    7.642  2.74
   9638.34    7.649  2.74
   9641.08    7.643  2.74
   9643.82    7.649  2.74
   9646.56    7.667  2.74
   9649.30    7.669  2.74
   9652.04    7.662  2.74
   9654.78    7.648  2.74
   9657.52    7.637  2.74
   9660.26    7.642  2.74
   9663.00    7.647  2.74
   9665.74    7.656  2.74
   9668.48    7.655  2.74
   9671.22    7.647  2.74
   9673.96    7.645  2.74
   9676.70    7.644  2.74
   9679.44    7.638  2.74
   9682.18    7.636  2.74
   9684.92    7.646  2.74
   9687.66    7.650  2.74
   9690.40    7.652  2.74
   9693.14    7.641  2.74
   9695.88    7.623  2.74
   9698.62    7.616  2.74
   9701.36    7.610  2.74
   9704.10    7.594  2.74
   9706.84    7.589  2.74
   9709.58    7.597  2.74
   9712.32    7.610  2.74
   9715.06    7.628  2.74
   9717.80    7.634  2.74
   9720.54    7.636  2.74
   9723.28    7.647  2.74
   9726.02    7.651  2.74
   9728.76    7.638  2.74
   9731.50    7.630  2.74
   9734.24    7.627  2.74
   9736.98    7.626  2.74
   9739.72    7.627  2.74
   9742.46    7.632  2.74
   9745.20    7.637  2.74
   9747.94    7.637  2.74
   9750.68    7.631  2.74
   9753.42    7.613  2.74
   9756.16    7.610  2.74
   9758.90    7.618  2.74
   9761.64    7.620  2.74
   9764.38    7.620  2.74
   9767.12    7.619  2.74
   9769.86    7.618  2.74
   9772.60    7.611  2.74
   9775.34    7.615  2.74
   9778.08    7.631  2.74
   9780.82    7.641  2.74
   9783.56    7.645  2.74
   9786.30    7.630  2.74
   9789.04    7.611  2.74
   9791.78    7.601  2.74
   9794.52    7.597  2.74
   9797.26    7.606  2.74
   9800.00    7.598  2.74
   9802.74    7.575  2.74
   9805.48    7.578  2.74
   9808.22    7.591  2.74
   9810.96    7.600  2.74
   9813.70    7.607  2.74
   9816.44    7.614  2.74
   9819.18    7.620  2.74
   9821.92    7.623  2.74
   9824.66    7.632  2.74
   9827.40    7.643  2.74
   9830.14    7.631  2.74
   9832.88    7.611  2.74
   9835.62    7.589  2.74
   9838.36    7.577  2.74
   9841.10    7.582  2.74
   9843.84    7.587  2.74
   9846.58    7.592  2.74
   9849.32    7.601  2.74
   9852.06    7.609  2.74
   9854.80    7.596  2.74
   9857.54    7.589  2.74
   9860.28    7.615  2.74
   9863.02    7.623  2.74
   9865.76    7.599  2.74
   9868.50    7.588  2.74
   9871.24    7.581  2.74
   9873.98    7.571  2.74
   9876.72    7.567  2.74
   9879.46    7.585  2.74
   9882.20    7.598  2.74
   9884.94    7.587  2.74
   9887.68    7.592  2.74
   9890.42    7.612  2.74
   9893.16    7.622  2.74
   9895.90    7.627  2.74
   9898.64    7.629  2.74
   9901.38    7.628  2.74
   9904.12    7.625  2.74
   9906.86    7.624  2.74
   9909.60    7.630  2.74
   9912.34    7.615  2.74
   9915.08    7.587  2.74
   9917.82    7.597  2.74
   9920.56    7.615  2.74
   9923.30    7.595  2.74
   9926.04    7.578  2.74
   9928.78    7.584  2.74
   9931.52    7.580  2.74
   9934.26    7.563  2.74
   9937.00    7.574  2.74
   9939.74    7.596  2.74
   9942.48    7.585  2.74
   9945.22    7.572  2.74
   9947.96    7.580  2.74
   9950.70    7.582  2.74
   9953.44    7.565  2.74
   9956.18    7.571  2.74
   9958.92    7.593  2.74
   9961.66    7.589  2.74
   9964.40    7.578  2.74
   9967.14    7.582  2.74
   9969.88    7.585  2.74
   9972.62    7.577  2.74
   9975.36    7.577  2.74
   9978.10    7.586  2.74
   9980.84    7.584  2.74
   9983.58    7.578  2.74
   9986.32    7.598  2.74
   9989.06    7.614  2.74
   9991.80    7.594  2.74
   9994.54    7.575  2.74
   9997.28    7.565  2.74
  10000.02    7.561  2.74
  10002.76    7.565  2.74
  10005.50    7.569  2.74
  10008.24    7.572  2.74
  10010.98    7.573  2.74
  10013.72    7.570  2.74
  10016.46    7.556  2.74
  10019.20    7.560  2.74
  10021.94    7.594  2.74
  10024.68    7.592  2.74
  10027.42    7.574  2.74
  10030.16    7.595  2.74
  10032.90    7.621  2.74
  10035.64    7.629  2.74
  10038.38    7.625  2.74
  10041.12    7.602  2.74
  10043.86    7.599  2.74
  10046.60    7.614  2.74
  10049.34    7.602  2.74
  10052.08    7.576  2.74
  10054.82    7.539  2.74
  10057.56    7.517  2.74
  10060.30    7.535  2.74
  10063.04    7.554  2.74
  10065.78    7.573  2.74
  10068.52    7.581  2.74
  10071.26    7.581  2.74
  10074.00    7.584  2.74
  10076.74    7.587  2.74
  10079.48    7.587  2.74
  10082.22    7.583  2.74
  10084.96    7.573  2.74
  10087.70    7.560  2.74
  10090.44    7.542  2.74
  10093.18    7.538  2.74
  10095.92    7.542  2.74
  10098.66    7.558  2.74
  10101.40    7.572  2.74
  10104.14    7.575  2.74
  10106.88    7.566  2.74
  10109.62    7.535  2.74
  10112.36    7.531  2.74
  10115.10    7.544  2.74
  10117.84    7.553  2.74
  10120.58    7.560  2.74
  10123.32    7.557  2.74
  10126.06    7.555  2.74
  10128.80    7.552  2.74
  10131.54    7.565  2.74
  10134.28    7.598  2.74
  10137.02    7.623  2.74
  10139.76    7.640  2.74
  10142.50    7.613  2.74
  10145.24    7.586  2.74
  10147.98    7.598  2.74
  10150.72    7.598  2.74
  10153.46    7.571  2.74
  10156.20    7.555  2.74
  10158.94    7.543  2.74
  10161.68    7.562  2.74
  10164.42    7.589  2.74
  10167.16    7.590  2.74
  10169.90    7.581  2.74
  10172.64    7.558  2.74
  10175.38    7.552  2.74
  10178.12    7.567  2.74
  10180.86    7.558  2.74
  10183.60    7.541  2.74
  10186.34    7.564  2.74
  10189.08    7.591  2.74
  10191.82    7.489  2.74
  10194.56    7.685  2.74
  10197.30    9.662  2.74
  10200.04-NaN       2.74
  10202.78Inf        2.74
  10205.52Inf        2.74
