#HD142703                                                    
#                                                            
#  Heap-Lindler STIS                                         
# wavelength  ABmag  band
   2950.00    7.801  2.74
   2952.74    7.777  2.74
   2955.48    7.749  2.74
   2958.22    7.731  2.74
   2960.96    7.734  2.74
   2963.70    7.776  2.74
   2966.44    7.818  2.74
   2969.18    7.809  2.74
   2971.92    7.790  2.74
   2974.66    7.726  2.74
   2977.40    7.717  2.74
   2980.14    7.754  2.74
   2982.88    7.776  2.74
   2985.62    7.825  2.74
   2988.36    7.728  2.74
   2991.10    7.683  2.74
   2993.84    7.701  2.74
   2996.58    7.714  2.74
   2999.32    7.747  2.74
   3002.06    7.774  2.74
   3004.80    7.742  2.74
   3007.54    7.719  2.74
   3010.28    7.702  2.74
   3013.02    7.688  2.74
   3015.76    7.715  2.74
   3018.50    7.739  2.74
   3021.24    7.726  2.74
   3023.98    7.702  2.74
   3026.72    7.681  2.74
   3029.46    7.680  2.74
   3032.20    7.671  2.74
   3034.94    7.666  2.74
   3037.68    7.674  2.74
   3040.42    7.671  2.74
   3043.16    7.662  2.74
   3045.90    7.666  2.74
   3048.64    7.674  2.74
   3051.38    7.665  2.74
   3054.12    7.670  2.74
   3056.86    7.710  2.74
   3059.60    7.703  2.74
   3062.34    7.667  2.74
   3065.08    7.683  2.74
   3067.82    7.679  2.74
   3070.56    7.667  2.74
   3073.30    7.689  2.74
   3076.04    7.686  2.74
   3078.78    7.660  2.74
   3081.52    7.642  2.74
   3084.26    7.627  2.74
   3087.00    7.644  2.74
   3089.74    7.665  2.74
   3092.48    7.669  2.74
   3095.22    7.661  2.74
   3097.96    7.667  2.74
   3100.70    7.684  2.74
   3103.44    7.664  2.74
   3106.18    7.624  2.74
   3108.92    7.595  2.74
   3111.66    7.603  2.74
   3114.40    7.608  2.74
   3117.14    7.625  2.74
   3119.88    7.659  2.74
   3122.62    7.644  2.74
   3125.36    7.630  2.74
   3128.10    7.626  2.74
   3130.84    7.630  2.74
   3133.58    7.632  2.74
   3136.32    7.605  2.74
   3139.06    7.593  2.74
   3141.80    7.596  2.74
   3144.54    7.598  2.74
   3147.28    7.601  2.74
   3150.02    7.585  2.74
   3152.76    7.585  2.74
   3155.50    7.606  2.74
   3158.24    7.629  2.74
   3160.98    7.653  2.74
   3163.72    7.625  2.74
   3166.46    7.590  2.74
   3169.20    7.578  2.74
   3171.94    7.553  2.74
   3174.68    7.546  2.74
   3177.42    7.581  2.74
   3180.16    7.628  2.74
   3182.90    7.621  2.74
   3185.64    7.591  2.74
   3188.38    7.586  2.74
   3191.12    7.601  2.74
   3193.86    7.614  2.74
   3196.60    7.595  2.74
   3199.34    7.558  2.74
   3202.08    7.536  2.74
   3204.82    7.530  2.74
   3207.56    7.546  2.74
   3210.30    7.580  2.74
   3213.04    7.594  2.74
   3215.78    7.597  2.74
   3218.52    7.582  2.74
   3221.26    7.559  2.74
   3224.00    7.556  2.74
   3226.74    7.584  2.74
   3229.48    7.605  2.74
   3232.22    7.592  2.74
   3234.96    7.592  2.74
   3237.70    7.592  2.74
   3240.44    7.569  2.74
   3243.18    7.538  2.74
   3245.92    7.517  2.74
   3248.66    7.529  2.74
   3251.40    7.554  2.74
   3254.14    7.547  2.74
   3256.88    7.516  2.74
   3259.62    7.500  2.74
   3262.36    7.491  2.74
   3265.10    7.484  2.74
   3267.84    7.482  2.74
   3270.58    7.493  2.74
   3273.32    7.501  2.74
   3276.06    7.508  2.74
   3278.80    7.513  2.74
   3281.54    7.493  2.74
   3284.28    7.480  2.74
   3287.02    7.477  2.74
   3289.76    7.473  2.74
   3292.50    7.461  2.74
   3295.24    7.454  2.74
   3297.98    7.447  2.74
   3300.72    7.442  2.74
   3303.46    7.454  2.74
   3306.20    7.459  2.74
   3308.94    7.460  2.74
   3311.68    7.449  2.74
   3314.42    7.446  2.74
   3317.16    7.458  2.74
   3319.90    7.469  2.74
   3322.64    7.476  2.74
   3325.38    7.485  2.74
   3328.12    7.472  2.74
   3330.86    7.454  2.74
   3333.60    7.453  2.74
   3336.34    7.467  2.74
   3339.08    7.482  2.74
   3341.82    7.489  2.74
   3344.56    7.463  2.74
   3347.30    7.477  2.74
   3350.04    7.498  2.74
   3352.78    7.453  2.74
   3355.52    7.420  2.74
   3358.26    7.430  2.74
   3361.00    7.465  2.74
   3363.74    7.443  2.74
   3366.48    7.432  2.74
   3369.22    7.450  2.74
   3371.96    7.465  2.74
   3374.70    7.448  2.74
   3377.44    7.423  2.74
   3380.18    7.456  2.74
   3382.92    7.458  2.74
   3385.66    7.428  2.74
   3388.40    7.422  2.74
   3391.14    7.442  2.74
   3393.88    7.444  2.74
   3396.62    7.411  2.74
   3399.36    7.379  2.74
   3402.10    7.389  2.74
   3404.84    7.402  2.74
   3407.58    7.400  2.74
   3410.32    7.403  2.74
   3413.06    7.399  2.74
   3415.80    7.389  2.74
   3418.54    7.385  2.74
   3421.28    7.395  2.74
   3424.02    7.393  2.74
   3426.76    7.377  2.74
   3429.50    7.365  2.74
   3432.24    7.360  2.74
   3434.98    7.368  2.74
   3437.72    7.380  2.74
   3440.46    7.409  2.74
   3443.20    7.428  2.74
   3445.94    7.403  2.74
   3448.68    7.365  2.74
   3451.42    7.359  2.74
   3454.16    7.363  2.74
   3456.90    7.360  2.74
   3459.64    7.384  2.74
   3462.38    7.395  2.74
   3465.12    7.367  2.74
   3467.86    7.348  2.74
   3470.60    7.352  2.74
   3473.34    7.373  2.74
   3476.08    7.393  2.74
   3478.82    7.371  2.74
   3481.56    7.349  2.74
   3484.30    7.346  2.74
   3487.04    7.347  2.74
   3489.78    7.366  2.74
   3492.52    7.382  2.74
   3495.26    7.370  2.74
   3498.00    7.359  2.74
   3500.74    7.339  2.74
   3503.48    7.337  2.74
   3506.22    7.342  2.74
   3508.96    7.336  2.74
   3511.70    7.347  2.74
   3514.44    7.345  2.74
   3517.18    7.342  2.74
   3519.92    7.328  2.74
   3522.66    7.333  2.74
   3525.40    7.345  2.74
   3528.14    7.333  2.74
   3530.88    7.314  2.74
   3533.62    7.311  2.74
   3536.36    7.302  2.74
   3539.10    7.302  2.74
   3541.84    7.297  2.74
   3544.58    7.289  2.74
   3547.32    7.286  2.74
   3550.06    7.279  2.74
   3552.80    7.279  2.74
   3555.54    7.292  2.74
   3558.28    7.300  2.74
   3561.02    7.287  2.74
   3563.76    7.281  2.74
   3566.50    7.308  2.74
   3569.24    7.322  2.74
   3571.98    7.327  2.74
   3574.72    7.306  2.74
   3577.46    7.301  2.74
   3580.20    7.301  2.74
   3582.94    7.305  2.74
   3585.68    7.314  2.74
   3588.42    7.321  2.74
   3591.16    7.288  2.74
   3593.90    7.272  2.74
   3596.64    7.274  2.74
   3599.38    7.267  2.74
   3602.12    7.263  2.74
   3604.86    7.275  2.74
   3607.60    7.282  2.74
   3610.34    7.289  2.74
   3613.08    7.281  2.74
   3615.82    7.275  2.74
   3618.56    7.278  2.74
   3621.30    7.274  2.74
   3624.04    7.249  2.74
   3626.78    7.241  2.74
   3629.52    7.257  2.74
   3632.26    7.281  2.74
   3635.00    7.249  2.74
   3637.74    7.242  2.74
   3640.48    7.242  2.74
   3643.22    7.241  2.74
   3645.96    7.242  2.74
   3648.70    7.248  2.74
   3651.44    7.240  2.74
   3654.18    7.225  2.74
   3656.92    7.213  2.74
   3659.66    7.219  2.74
   3662.40    7.214  2.74
   3665.14    7.210  2.74
   3667.88    7.211  2.74
   3670.62    7.208  2.74
   3673.36    7.207  2.74
   3676.10    7.213  2.74
   3678.84    7.225  2.74
   3681.58    7.232  2.74
   3684.32    7.233  2.74
   3687.06    7.240  2.74
   3689.80    7.218  2.74
   3692.54    7.201  2.74
   3695.28    7.189  2.74
   3698.02    7.187  2.74
   3700.76    7.162  2.74
   3703.50    7.206  2.74
   3706.24    7.222  2.74
   3708.98    7.156  2.74
   3711.72    7.202  2.74
   3714.46    7.157  2.74
   3717.20    7.032  2.74
   3719.94    7.106  2.74
   3722.68    7.209  2.74
   3725.42    7.068  2.74
   3728.16    6.947  2.74
   3730.90    6.988  2.74
   3733.64    7.174  2.74
   3736.38    7.215  2.74
   3739.12    6.989  2.74
   3741.86    6.855  2.74
   3744.60    6.881  2.74
   3747.34    7.048  2.74
   3750.08    7.221  2.74
   3752.82    7.108  2.74
   3755.56    6.882  2.74
   3758.30    6.796  2.74
   3761.04    6.777  2.74
   3763.78    6.789  2.74
   3766.52    6.890  2.74
   3769.26    7.085  2.74
   3772.00    7.162  2.74
   3774.74    6.937  2.74
   3777.48    6.735  2.74
   3780.22    6.616  2.74
   3782.96    6.568  2.74
   3785.70    6.580  2.74
   3788.44    6.619  2.74
   3791.18    6.682  2.74
   3793.92    6.839  2.74
   3796.66    7.081  2.74
   3799.40    7.145  2.74
   3802.14    6.905  2.74
   3804.88    6.712  2.74
   3807.62    6.604  2.74
   3810.36    6.535  2.74
   3813.10    6.509  2.74
   3815.84    6.500  2.74
   3818.58    6.490  2.74
   3821.32    6.514  2.74
   3824.06    6.558  2.74
   3826.80    6.650  2.74
   3829.54    6.749  2.74
   3832.28    6.928  2.74
   3835.02    7.153  2.74
   3837.76    7.109  2.74
   3840.50    6.871  2.74
   3843.24    6.671  2.74
   3845.98    6.553  2.74
   3848.72    6.489  2.74
   3851.46    6.446  2.74
   3854.20    6.417  2.74
   3856.94    6.419  2.74
   3859.68    6.412  2.74
   3862.42    6.390  2.74
   3865.16    6.377  2.74
   3867.90    6.373  2.74
   3870.64    6.387  2.74
   3873.38    6.428  2.74
   3876.12    6.465  2.74
   3878.86    6.539  2.74
   3881.60    6.604  2.74
   3884.34    6.731  2.74
   3887.08    6.974  2.74
   3889.82    7.118  2.74
   3892.56    6.930  2.74
   3895.30    6.728  2.74
   3898.04    6.612  2.74
   3900.78    6.548  2.74
   3903.52    6.484  2.74
   3906.26    6.436  2.74
   3909.00    6.379  2.74
   3911.74    6.341  2.74
   3914.48    6.338  2.74
   3917.22    6.321  2.74
   3919.96    6.316  2.74
   3922.70    6.315  2.74
   3925.44    6.306  2.74
   3928.18    6.332  2.74
   3930.92    6.431  2.74
   3933.66    6.593  2.74
   3936.40    6.474  2.74
   3939.14    6.333  2.74
   3941.88    6.303  2.74
   3944.62    6.319  2.74
   3947.36    6.327  2.74
   3950.10    6.348  2.74
   3952.84    6.368  2.74
   3955.58    6.403  2.74
   3958.32    6.456  2.74
   3961.06    6.524  2.74
   3963.80    6.633  2.74
   3966.54    6.847  2.74
   3969.28    7.140  2.74
   3972.02    7.017  2.74
   3974.76    6.781  2.74
   3977.50    6.602  2.74
   3980.24    6.492  2.74
   3982.98    6.433  2.74
   3985.72    6.377  2.74
   3988.46    6.341  2.74
   3991.20    6.310  2.74
   3993.94    6.287  2.74
   3996.68    6.273  2.74
   3999.42    6.260  2.74
   4002.16    6.248  2.74
   4004.90    6.255  2.74
   4007.64    6.246  2.74
   4010.38    6.223  2.74
   4013.12    6.222  2.74
   4015.86    6.213  2.74
   4018.60    6.205  2.74
   4021.34    6.202  2.74
   4024.08    6.207  2.74
   4026.82    6.206  2.74
   4029.56    6.216  2.74
   4032.30    6.220  2.74
   4035.04    6.206  2.74
   4037.78    6.201  2.74
   4040.52    6.189  2.74
   4043.26    6.199  2.74
   4046.00    6.224  2.74
   4048.74    6.206  2.74
   4051.48    6.188  2.74
   4054.22    6.202  2.74
   4056.96    6.212  2.74
   4059.70    6.210  2.74
   4062.44    6.225  2.74
   4065.18    6.241  2.74
   4067.92    6.245  2.74
   4070.66    6.254  2.74
   4073.40    6.299  2.74
   4076.14    6.302  2.74
   4078.88    6.306  2.74
   4081.62    6.305  2.74
   4084.36    6.322  2.74
   4087.10    6.350  2.74
   4089.84    6.397  2.74
   4092.58    6.454  2.74
   4095.32    6.554  2.74
   4098.06    6.714  2.74
   4100.80    6.940  2.74
   4103.54    6.946  2.74
   4106.28    6.716  2.74
   4109.02    6.566  2.74
   4111.76    6.469  2.74
   4114.50    6.396  2.74
   4117.24    6.350  2.74
   4119.98    6.319  2.74
   4122.72    6.291  2.74
   4125.46    6.264  2.74
   4128.20    6.256  2.74
   4130.94    6.255  2.74
   4133.68    6.241  2.74
   4136.42    6.222  2.74
   4139.16    6.207  2.74
   4141.90    6.207  2.74
   4144.64    6.215  2.74
   4147.38    6.202  2.74
   4150.12    6.194  2.74
   4152.86    6.194  2.74
   4155.60    6.195  2.74
   4158.34    6.195  2.74
   4161.08    6.189  2.74
   4163.82    6.184  2.74
   4166.56    6.183  2.74
   4169.30    6.183  2.74
   4172.04    6.193  2.74
   4174.78    6.198  2.74
   4177.52    6.194  2.74
   4180.26    6.189  2.74
   4183.00    6.187  2.74
   4185.74    6.189  2.74
   4188.48    6.183  2.74
   4191.22    6.178  2.74
   4193.96    6.177  2.74
   4196.70    6.183  2.74
   4199.44    6.193  2.74
   4202.18    6.194  2.74
   4204.92    6.176  2.74
   4207.66    6.165  2.74
   4210.40    6.172  2.74
   4213.14    6.181  2.74
   4215.88    6.194  2.74
   4218.62    6.179  2.74
   4221.36    6.181  2.74
   4224.10    6.189  2.74
   4226.84    6.208  2.74
   4229.58    6.192  2.74
   4232.32    6.193  2.74
   4235.06    6.192  2.74
   4237.80    6.182  2.74
   4240.54    6.171  2.74
   4243.28    6.174  2.74
   4246.02    6.185  2.74
   4248.76    6.196  2.74
   4251.50    6.191  2.74
   4254.24    6.185  2.74
   4256.98    6.190  2.74
   4259.72    6.185  2.74
   4262.46    6.174  2.74
   4265.20    6.171  2.74
   4267.94    6.174  2.74
   4270.68    6.203  2.74
   4273.42    6.204  2.74
   4276.16    6.183  2.74
   4278.90    6.170  2.74
   4281.64    6.180  2.74
   4284.38    6.183  2.74
   4287.12    6.195  2.74
   4289.86    6.211  2.74
   4292.60    6.215  2.74
   4295.34    6.212  2.74
   4298.08    6.236  2.74
   4300.82    6.248  2.74
   4303.56    6.244  2.74
   4306.30    6.240  2.74
   4309.04    6.247  2.74
   4311.78    6.246  2.74
   4314.52    6.258  2.74
   4317.26    6.256  2.74
   4320.00    6.273  2.74
   4322.74    6.294  2.74
   4325.48    6.340  2.74
   4328.22    6.365  2.74
   4330.96    6.409  2.74
   4333.70    6.493  2.74
   4336.44    6.648  2.74
   4339.18    6.862  2.74
   4341.92    6.875  2.74
   4344.66    6.664  2.74
   4347.40    6.511  2.74
   4350.14    6.424  2.74
   4352.88    6.367  2.74
   4355.62    6.315  2.74
   4358.36    6.283  2.74
   4361.10    6.248  2.74
   4363.84    6.226  2.74
   4366.58    6.228  2.74
   4369.32    6.221  2.74
   4372.06    6.211  2.74
   4374.80    6.198  2.74
   4377.54    6.183  2.74
   4380.28    6.179  2.74
   4383.02    6.198  2.74
   4385.76    6.190  2.74
   4388.50    6.166  2.74
   4391.24    6.161  2.74
   4393.98    6.171  2.74
   4396.72    6.171  2.74
   4399.46    6.167  2.74
   4402.20    6.166  2.74
   4404.94    6.175  2.74
   4407.68    6.139  2.74
   4410.42    6.148  2.74
   4413.16    6.158  2.74
   4415.90    6.170  2.74
   4418.64    6.164  2.74
   4421.38    6.152  2.74
   4424.12    6.149  2.74
   4426.86    6.150  2.74
   4429.60    6.145  2.74
   4432.34    6.146  2.74
   4435.08    6.144  2.74
   4437.82    6.140  2.74
   4440.56    6.146  2.74
   4443.30    6.160  2.74
   4446.04    6.147  2.74
   4448.78    6.148  2.74
   4451.52    6.145  2.74
   4454.26    6.144  2.74
   4457.00    6.138  2.74
   4459.74    6.136  2.74
   4462.48    6.138  2.74
   4465.22    6.152  2.74
   4467.96    6.160  2.74
   4470.70    6.149  2.74
   4473.44    6.139  2.74
   4476.18    6.140  2.74
   4478.92    6.150  2.74
   4481.66    6.155  2.74
   4484.40    6.138  2.74
   4487.14    6.136  2.74
   4489.88    6.136  2.74
   4492.62    6.143  2.74
   4495.36    6.144  2.74
   4498.10    6.142  2.74
   4500.84    6.151  2.74
   4503.58    6.143  2.74
   4506.32    6.139  2.74
   4509.06    6.133  2.74
   4511.80    6.128  2.74
   4514.54    6.134  2.74
   4517.28    6.143  2.74
   4520.02    6.152  2.74
   4522.76    6.153  2.74
   4525.50    6.145  2.74
   4528.24    6.145  2.74
   4530.98    6.150  2.74
   4533.72    6.153  2.74
   4536.46    6.136  2.74
   4539.20    6.131  2.74
   4541.94    6.132  2.74
   4544.68    6.134  2.74
   4547.42    6.152  2.74
   4550.16    6.162  2.74
   4552.90    6.161  2.74
   4555.64    6.155  2.74
   4558.38    6.145  2.74
   4561.12    6.141  2.74
   4563.86    6.138  2.74
   4566.60    6.133  2.74
   4569.34    6.139  2.74
   4572.08    6.144  2.74
   4574.82    6.134  2.74
   4577.56    6.127  2.74
   4580.30    6.131  2.74
   4583.04    6.143  2.74
   4585.78    6.142  2.74
   4588.52    6.139  2.74
   4591.26    6.136  2.74
   4594.00    6.137  2.74
   4596.74    6.128  2.74
   4599.48    6.121  2.74
   4602.22    6.120  2.74
   4604.96    6.121  2.74
   4607.70    6.121  2.74
   4610.44    6.121  2.74
   4613.18    6.123  2.74
   4615.92    6.122  2.74
   4618.66    6.132  2.74
   4621.40    6.134  2.74
   4624.14    6.127  2.74
   4626.88    6.125  2.74
   4629.62    6.126  2.74
   4632.36    6.127  2.74
   4635.10    6.122  2.74
   4637.84    6.120  2.74
   4640.58    6.122  2.74
   4643.32    6.119  2.74
   4646.06    6.119  2.74
   4648.80    6.116  2.74
   4651.54    6.121  2.74
   4654.28    6.120  2.74
   4657.02    6.118  2.74
   4659.76    6.118  2.74
   4662.50    6.120  2.74
   4665.24    6.123  2.74
   4667.98    6.124  2.74
   4670.72    6.122  2.74
   4673.46    6.120  2.74
   4676.20    6.118  2.74
   4678.94    6.115  2.74
   4681.68    6.120  2.74
   4684.42    6.117  2.74
   4687.16    6.117  2.74
   4689.90    6.116  2.74
   4692.64    6.119  2.74
   4695.38    6.115  2.74
   4698.12    6.117  2.74
   4700.86    6.123  2.74
   4703.60    6.123  2.74
   4706.34    6.113  2.74
   4709.08    6.137  2.74
   4711.82    6.126  2.74
   4714.56    6.113  2.74
   4717.30    6.112  2.74
   4720.04    6.108  2.74
   4722.78    6.104  2.74
   4725.52    6.106  2.74
   4728.26    6.103  2.74
   4731.00    6.106  2.74
   4733.74    6.111  2.74
   4736.48    6.122  2.74
   4739.22    6.120  2.74
   4741.96    6.115  2.74
   4744.70    6.114  2.74
   4747.44    6.114  2.74
   4750.18    6.111  2.74
   4752.92    6.115  2.74
   4755.66    6.119  2.74
   4758.40    6.119  2.74
   4761.14    6.131  2.74
   4763.88    6.132  2.74
   4766.62    6.128  2.74
   4769.36    6.128  2.74
   4772.10    6.134  2.74
   4774.84    6.130  2.74
   4777.58    6.123  2.74
   4780.32    6.121  2.74
   4783.06    6.120  2.74
   4785.80    6.122  2.74
   4788.54    6.120  2.74
   4791.28    6.120  2.74
   4794.02    6.121  2.74
   4796.76    6.122  2.74
   4799.50    6.129  2.74
   4802.24    6.132  2.74
   4804.98    6.133  2.74
   4807.72    6.132  2.74
   4810.46    6.129  2.74
   4813.20    6.134  2.74
   4815.94    6.134  2.74
   4818.68    6.136  2.74
   4821.42    6.144  2.74
   4824.16    6.152  2.74
   4826.90    6.157  2.74
   4829.64    6.158  2.74
   4832.38    6.164  2.74
   4835.12    6.181  2.74
   4837.86    6.191  2.74
   4840.60    6.201  2.74
   4843.34    6.226  2.74
   4846.08    6.253  2.74
   4848.82    6.284  2.74
   4851.56    6.330  2.74
   4854.30    6.410  2.74
   4857.04    6.544  2.74
   4859.78    6.720  2.74
   4862.52    6.729  2.74
   4865.26    6.568  2.74
   4868.00    6.431  2.74
   4870.74    6.351  2.74
   4873.48    6.295  2.74
   4876.22    6.255  2.74
   4878.96    6.227  2.74
   4881.70    6.206  2.74
   4884.44    6.190  2.74
   4887.18    6.178  2.74
   4889.92    6.176  2.74
   4892.66    6.169  2.74
   4895.40    6.152  2.74
   4898.14    6.141  2.74
   4900.88    6.139  2.74
   4903.62    6.134  2.74
   4906.36    6.124  2.74
   4909.10    6.123  2.74
   4911.84    6.113  2.74
   4914.58    6.113  2.74
   4917.32    6.130  2.74
   4920.06    6.139  2.74
   4922.80    6.142  2.74
   4925.54    6.132  2.74
   4928.28    6.119  2.74
   4931.02    6.120  2.74
   4933.76    6.119  2.74
   4936.50    6.115  2.74
   4939.24    6.112  2.74
   4941.98    6.107  2.74
   4944.72    6.105  2.74
   4947.46    6.104  2.74
   4950.20    6.103  2.74
   4952.94    6.108  2.74
   4955.68    6.115  2.74
   4958.42    6.120  2.74
   4961.16    6.114  2.74
   4963.90    6.107  2.74
   4966.64    6.106  2.74
   4969.38    6.105  2.74
   4972.12    6.103  2.74
   4974.86    6.105  2.74
   4977.60    6.105  2.74
   4980.34    6.106  2.74
   4983.08    6.113  2.74
   4985.82    6.111  2.74
   4988.56    6.105  2.74
   4991.30    6.102  2.74
   4994.04    6.101  2.74
   4996.78    6.102  2.74
   4999.52    6.110  2.74
   5002.26    6.111  2.74
   5005.00    6.111  2.74
   5007.74    6.114  2.74
   5010.48    6.114  2.74
   5013.22    6.114  2.74
   5015.96    6.122  2.74
   5018.70    6.128  2.74
   5021.44    6.115  2.74
   5024.18    6.105  2.74
   5026.92    6.105  2.74
   5029.66    6.105  2.74
   5032.40    6.102  2.74
   5035.14    6.105  2.74
   5037.88    6.115  2.74
   5040.62    6.127  2.74
   5043.36    6.120  2.74
   5046.10    6.107  2.74
   5048.84    6.110  2.74
   5051.58    6.114  2.74
   5054.32    6.111  2.74
   5057.06    6.106  2.74
   5059.80    6.105  2.74
   5062.54    6.100  2.74
   5065.28    6.104  2.74
   5068.02    6.110  2.74
   5070.76    6.105  2.74
   5073.50    6.105  2.74
   5076.24    6.107  2.74
   5078.98    6.106  2.74
   5081.72    6.101  2.74
   5084.46    6.101  2.74
   5087.20    6.103  2.74
   5089.94    6.100  2.74
   5092.68    6.096  2.74
   5095.42    6.097  2.74
   5098.16    6.102  2.74
   5100.90    6.095  2.74
   5103.64    6.093  2.74
   5106.38    6.100  2.74
   5109.12    6.101  2.74
   5111.86    6.102  2.74
   5114.60    6.100  2.74
   5117.34    6.094  2.74
   5120.08    6.096  2.74
   5122.82    6.099  2.74
   5125.56    6.099  2.74
   5128.30    6.099  2.74
   5131.04    6.100  2.74
   5133.78    6.105  2.74
   5136.52    6.107  2.74
   5139.26    6.110  2.74
   5142.00    6.104  2.74
   5144.74    6.096  2.74
   5147.48    6.093  2.74
   5150.22    6.096  2.74
   5152.96    6.098  2.74
   5155.70    6.095  2.74
   5158.44    6.096  2.74
   5161.18    6.101  2.74
   5163.92    6.114  2.74
   5166.66    6.141  2.74
   5169.40    6.155  2.74
   5172.14    6.144  2.74
   5174.88    6.126  2.74
   5177.62    6.104  2.74
   5180.36    6.108  2.74
   5183.10    6.124  2.74
   5185.84    6.123  2.74
   5188.58    6.112  2.74
   5191.32    6.109  2.74
   5194.06    6.108  2.74
   5196.80    6.103  2.74
   5199.54    6.099  2.74
   5202.28    6.098  2.74
   5205.02    6.104  2.74
   5207.76    6.106  2.74
   5210.50    6.101  2.74
   5213.24    6.098  2.74
   5215.98    6.097  2.74
   5218.72    6.093  2.74
   5221.46    6.095  2.74
   5224.20    6.106  2.74
   5226.94    6.110  2.74
   5229.68    6.104  2.74
   5232.42    6.106  2.74
   5235.16    6.113  2.74
   5237.90    6.101  2.74
   5240.64    6.091  2.74
   5243.38    6.091  2.74
   5246.12    6.092  2.74
   5248.86    6.090  2.74
   5251.60    6.094  2.74
   5254.34    6.093  2.74
   5257.08    6.088  2.74
   5259.82    6.092  2.74
   5262.56    6.103  2.74
   5265.30    6.108  2.74
   5268.04    6.117  2.74
   5270.78    6.123  2.74
   5273.52    6.108  2.74
   5276.26    6.106  2.74
   5279.00    6.102  2.74
   5281.74    6.097  2.74
   5284.48    6.096  2.74
   5287.22    6.091  2.74
   5289.96    6.085  2.74
   5292.70    6.086  2.74
   5295.44    6.090  2.74
   5298.18    6.087  2.74
   5300.92    6.089  2.74
   5303.66    6.090  2.74
   5306.40    6.088  2.74
   5309.14    6.088  2.74
   5311.88    6.092  2.74
   5314.62    6.097  2.74
   5317.36    6.097  2.74
   5320.10    6.092  2.74
   5322.84    6.099  2.74
   5325.58    6.105  2.74
   5328.32    6.110  2.74
   5331.06    6.097  2.74
   5333.80    6.083  2.74
   5336.54    6.091  2.74
   5339.28    6.095  2.74
   5342.02    6.089  2.74
   5344.76    6.087  2.74
   5347.50    6.093  2.74
   5350.24    6.096  2.74
   5352.98    6.093  2.74
   5355.72    6.092  2.74
   5358.46    6.092  2.74
   5361.20    6.092  2.74
   5363.94    6.101  2.74
   5366.68    6.099  2.74
   5369.42    6.101  2.74
   5372.16    6.106  2.74
   5374.90    6.097  2.74
   5377.64    6.095  2.74
   5380.38    6.100  2.74
   5383.12    6.100  2.74
   5385.86    6.096  2.74
   5388.60    6.092  2.74
   5391.34    6.092  2.74
   5394.08    6.097  2.74
   5396.82    6.102  2.74
   5399.56    6.100  2.74
   5402.30    6.100  2.74
   5405.04    6.102  2.74
   5407.78    6.097  2.74
   5410.52    6.096  2.74
   5413.26    6.098  2.74
   5416.00    6.096  2.74
   5418.74    6.093  2.74
   5421.48    6.099  2.74
   5424.22    6.104  2.74
   5426.96    6.100  2.74
   5429.70    6.098  2.74
   5432.44    6.103  2.74
   5435.18    6.104  2.74
   5437.92    6.096  2.74
   5440.66    6.092  2.74
   5443.40    6.095  2.74
   5446.14    6.098  2.74
   5448.88    6.097  2.74
   5451.62    6.095  2.74
   5454.36    6.094  2.74
   5457.10    6.096  2.74
   5459.84    6.093  2.74
   5462.58    6.092  2.74
   5465.32    6.088  2.74
   5468.06    6.092  2.74
   5470.80    6.089  2.74
   5473.54    6.090  2.74
   5476.28    6.092  2.74
   5479.02    6.090  2.74
   5481.76    6.088  2.74
   5484.50    6.088  2.74
   5487.24    6.090  2.74
   5489.98    6.089  2.74
   5492.72    6.089  2.74
   5495.46    6.086  2.74
   5498.20    6.091  2.74
   5500.94    6.097  2.74
   5503.68    6.095  2.74
   5506.42    6.093  2.74
   5509.16    6.095  2.74
   5511.90    6.094  2.74
   5514.64    6.095  2.74
   5517.38    6.094  2.74
   5520.12    6.092  2.74
   5522.86    6.090  2.74
   5525.60    6.093  2.74
   5528.34    6.100  2.74
   5531.08    6.099  2.74
   5533.82    6.090  2.74
   5536.56    6.084  2.74
   5539.30    6.091  2.74
   5542.04    6.092  2.74
   5544.78    6.089  2.74
   5547.52    6.088  2.74
   5550.26    6.085  2.74
   5553.00    6.085  2.74
   5555.74    6.084  2.74
   5558.48    6.089  2.74
   5561.22    6.090  2.74
   5563.96    6.086  2.74
   5566.70    6.087  2.74
   5569.44    6.091  2.74
   5572.18    6.092  2.74
   5574.92    6.093  2.74
   5577.66    6.086  2.74
   5580.40    6.089  2.74
   5583.14    6.088  2.74
   5585.88    6.092  2.74
   5588.62    6.092  2.74
   5591.36    6.091  2.74
   5594.10    6.089  2.74
   5596.84    6.088  2.74
   5599.58    6.089  2.74
   5602.32    6.089  2.74
   5605.06    6.089  2.74
   5607.80    6.089  2.74
   5610.54    6.085  2.74
   5613.28    6.089  2.74
   5616.02    6.090  2.74
   5618.76    6.087  2.74
   5621.50    6.090  2.74
   5624.24    6.085  2.74
   5626.98    6.087  2.74
   5629.72    6.070  2.74
   5632.46    6.062  2.74
   5635.20    6.084  2.74
   5637.94    6.080  2.74
   5640.68    6.080  2.74
   5643.42    6.089  2.74
   5646.16    6.093  2.74
   5648.90    6.077  2.74
   5651.64    6.090  2.74
   5654.38    6.095  2.74
   5657.12    6.097  2.74
   5659.86    6.094  2.74
   5662.60    6.094  2.74
   5665.34    6.097  2.74
   5668.08    6.098  2.74
   5670.82    6.097  2.74
   5673.56    6.091  2.74
   5676.30    6.089  2.74
   5679.04    6.096  2.74
   5681.78    6.099  2.74
   5684.52    6.096  2.74
   5687.26    6.093  2.74
   5690.00    6.090  2.74
   5692.74    6.094  2.74
   5695.48    6.099  2.74
   5698.22    6.102  2.74
   5700.96    6.105  2.74
   5703.70    6.108  2.74
   5706.44    6.110  2.74
   5709.18    6.112  2.74
   5711.92    6.109  2.74
   5714.66    6.104  2.74
   5717.40    6.102  2.74
   5720.14    6.102  2.74
   5722.88    6.106  2.74
   5725.62    6.105  2.74
   5728.36    6.099  2.74
   5731.10    6.100  2.74
   5733.84    6.103  2.74
   5736.58    6.099  2.74
   5739.32    6.093  2.74
   5742.06    6.090  2.74
   5744.80    6.090  2.74
   5747.54    6.092  2.74
   5750.28    6.095  2.74
   5753.02    6.099  2.74
   5755.76    6.099  2.74
   5758.50    6.095  2.74
   5761.24    6.090  2.74
   5763.98    6.087  2.74
   5766.72    6.096  2.74
   5769.46    6.098  2.74
   5772.20    6.092  2.74
   5774.94    6.088  2.74
   5777.68    6.085  2.74
   5780.42    6.090  2.74
   5783.16    6.094  2.74
   5785.90    6.089  2.74
   5788.64    6.087  2.74
   5791.38    6.094  2.74
   5794.12    6.097  2.74
   5796.86    6.099  2.74
   5799.60    6.097  2.74
   5802.34    6.094  2.74
   5805.08    6.089  2.74
   5807.82    6.087  2.74
   5810.56    6.091  2.74
   5813.30    6.093  2.74
   5816.04    6.095  2.74
   5818.78    6.094  2.74
   5821.52    6.092  2.74
   5824.26    6.093  2.74
   5827.00    6.095  2.74
   5829.74    6.094  2.74
   5832.48    6.092  2.74
   5835.22    6.087  2.74
   5837.96    6.089  2.74
   5840.70    6.097  2.74
   5843.44    6.100  2.74
   5846.18    6.100  2.74
   5848.92    6.099  2.74
   5851.66    6.099  2.74
   5854.40    6.102  2.74
   5857.14    6.102  2.74
   5859.88    6.096  2.74
   5862.62    6.108  2.74
   5865.36    6.133  2.74
   5868.10    6.122  2.74
   5870.84    6.101  2.74
   5873.58    6.100  2.74
   5876.32    6.102  2.74
   5879.06    6.100  2.74
   5881.80    6.106  2.74
   5884.54    6.121  2.74
   5887.28    6.130  2.74
   5890.02    6.133  2.74
   5892.76    6.131  2.74
   5895.50    6.124  2.74
   5898.24    6.112  2.74
   5900.98    6.102  2.74
   5903.72    6.091  2.74
   5906.46    6.092  2.74
   5909.20    6.102  2.74
   5911.94    6.100  2.74
   5914.68    6.096  2.74
   5917.42    6.097  2.74
   5920.16    6.099  2.74
   5922.90    6.105  2.74
   5925.64    6.107  2.74
   5928.38    6.105  2.74
   5931.12    6.104  2.74
   5933.86    6.103  2.74
   5936.60    6.101  2.74
   5939.34    6.100  2.74
   5942.08    6.099  2.74
   5944.82    6.099  2.74
   5947.56    6.099  2.74
   5950.30    6.100  2.74
   5953.04    6.102  2.74
   5955.78    6.100  2.74
   5958.52    6.096  2.74
   5961.26    6.101  2.74
   5964.00    6.104  2.74
   5966.74    6.103  2.74
   5969.48    6.101  2.74
   5972.22    6.099  2.74
   5974.96    6.100  2.74
   5977.70    6.101  2.74
   5980.44    6.095  2.74
   5983.18    6.088  2.74
   5985.92    6.090  2.74
   5988.66    6.093  2.74
   5991.40    6.100  2.74
   5994.14    6.098  2.74
   5996.88    6.089  2.74
   5999.62    6.094  2.74
   6002.36    6.102  2.74
   6005.10    6.094  2.74
   6007.84    6.089  2.74
   6010.58    6.100  2.74
   6013.32    6.106  2.74
   6016.06    6.104  2.74
   6018.80    6.106  2.74
   6021.54    6.109  2.74
   6024.28    6.105  2.74
   6027.02    6.100  2.74
   6029.76    6.098  2.74
   6032.50    6.098  2.74
   6035.24    6.101  2.74
   6037.98    6.101  2.74
   6040.72    6.098  2.74
   6043.46    6.097  2.74
   6046.20    6.099  2.74
   6048.94    6.100  2.74
   6051.68    6.102  2.74
   6054.42    6.107  2.74
   6057.16    6.106  2.74
   6059.90    6.096  2.74
   6062.64    6.095  2.74
   6065.38    6.099  2.74
   6068.12    6.101  2.74
   6070.86    6.101  2.74
   6073.60    6.093  2.74
   6076.34    6.090  2.74
   6079.08    6.099  2.74
   6081.82    6.101  2.74
   6084.56    6.096  2.74
   6087.30    6.094  2.74
   6090.04    6.093  2.74
   6092.78    6.094  2.74
   6095.52    6.095  2.74
   6098.26    6.099  2.74
   6101.00    6.100  2.74
   6103.74    6.098  2.74
   6106.48    6.097  2.74
   6109.22    6.096  2.74
   6111.96    6.100  2.74
   6114.70    6.105  2.74
   6117.44    6.101  2.74
   6120.18    6.098  2.74
   6122.92    6.100  2.74
   6125.66    6.101  2.74
   6128.40    6.100  2.74
   6131.14    6.104  2.74
   6133.88    6.109  2.74
   6136.62    6.106  2.74
   6139.36    6.103  2.74
   6142.10    6.104  2.74
   6144.84    6.105  2.74
   6147.58    6.108  2.74
   6150.32    6.107  2.74
   6153.06    6.102  2.74
   6155.80    6.105  2.74
   6158.54    6.110  2.74
   6161.28    6.110  2.74
   6164.02    6.110  2.74
   6166.76    6.112  2.74
   6169.50    6.112  2.74
   6172.24    6.111  2.74
   6174.98    6.104  2.74
   6177.72    6.095  2.74
   6180.46    6.097  2.74
   6183.20    6.100  2.74
   6185.94    6.098  2.74
   6188.68    6.098  2.74
   6191.42    6.101  2.74
   6194.16    6.102  2.74
   6196.90    6.103  2.74
   6199.64    6.102  2.74
   6202.38    6.100  2.74
   6205.12    6.101  2.74
   6207.86    6.102  2.74
   6210.60    6.098  2.74
   6213.34    6.097  2.74
   6216.08    6.099  2.74
   6218.82    6.103  2.74
   6221.56    6.108  2.74
   6224.30    6.108  2.74
   6227.04    6.107  2.74
   6229.78    6.105  2.74
   6232.52    6.104  2.74
   6235.26    6.106  2.74
   6238.00    6.107  2.74
   6240.74    6.106  2.74
   6243.48    6.110  2.74
   6246.22    6.114  2.74
   6248.96    6.108  2.74
   6251.70    6.103  2.74
   6254.44    6.107  2.74
   6257.18    6.108  2.74
   6259.92    6.105  2.74
   6262.66    6.106  2.74
   6265.40    6.111  2.74
   6268.14    6.111  2.74
   6270.88    6.110  2.74
   6273.62    6.107  2.74
   6276.36    6.104  2.74
   6279.10    6.100  2.74
   6281.84    6.097  2.74
   6284.58    6.094  2.74
   6287.32    6.099  2.74
   6290.06    6.107  2.74
   6292.80    6.109  2.74
   6295.54    6.109  2.74
   6298.28    6.107  2.74
   6301.02    6.107  2.74
   6303.76    6.112  2.74
   6306.50    6.112  2.74
   6309.24    6.111  2.74
   6311.98    6.108  2.74
   6314.72    6.106  2.74
   6317.46    6.106  2.74
   6320.20    6.106  2.74
   6322.94    6.109  2.74
   6325.68    6.110  2.74
   6328.42    6.110  2.74
   6331.16    6.110  2.74
   6333.90    6.110  2.74
   6336.64    6.113  2.74
   6339.38    6.116  2.74
   6342.12    6.117  2.74
   6344.86    6.116  2.74
   6347.60    6.109  2.74
   6350.34    6.108  2.74
   6353.08    6.109  2.74
   6355.82    6.111  2.74
   6358.56    6.113  2.74
   6361.30    6.111  2.74
   6364.04    6.111  2.74
   6366.78    6.114  2.74
   6369.52    6.115  2.74
   6372.26    6.110  2.74
   6375.00    6.111  2.74
   6377.74    6.113  2.74
   6380.48    6.112  2.74
   6383.22    6.111  2.74
   6385.96    6.112  2.74
   6388.70    6.111  2.74
   6391.44    6.110  2.74
   6394.18    6.109  2.74
   6396.92    6.109  2.74
   6399.66    6.111  2.74
   6402.40    6.112  2.74
   6405.14    6.111  2.74
   6407.88    6.110  2.74
   6410.62    6.113  2.74
   6413.36    6.114  2.74
   6416.10    6.110  2.74
   6418.84    6.108  2.74
   6421.58    6.106  2.74
   6424.32    6.105  2.74
   6427.06    6.105  2.74
   6429.80    6.108  2.74
   6432.54    6.110  2.74
   6435.28    6.110  2.74
   6438.02    6.110  2.74
   6440.76    6.110  2.74
   6443.50    6.109  2.74
   6446.24    6.107  2.74
   6448.98    6.108  2.74
   6451.72    6.110  2.74
   6454.46    6.113  2.74
   6457.20    6.113  2.74
   6459.94    6.109  2.74
   6462.68    6.106  2.74
   6465.42    6.103  2.74
   6468.16    6.107  2.74
   6470.90    6.112  2.74
   6473.64    6.110  2.74
   6476.38    6.109  2.74
   6479.12    6.113  2.74
   6481.86    6.113  2.74
   6484.60    6.112  2.74
   6487.34    6.112  2.74
   6490.08    6.112  2.74
   6492.82    6.116  2.74
   6495.56    6.119  2.74
   6498.30    6.119  2.74
   6501.04    6.118  2.74
   6503.78    6.116  2.74
   6506.52    6.115  2.74
   6509.26    6.115  2.74
   6512.00    6.120  2.74
   6514.74    6.126  2.74
   6517.48    6.131  2.74
   6520.22    6.132  2.74
   6522.96    6.124  2.74
   6525.70    6.126  2.74
   6528.44    6.138  2.74
   6531.18    6.144  2.74
   6533.92    6.148  2.74
   6536.66    6.158  2.74
   6539.40    6.168  2.74
   6542.14    6.173  2.74
   6544.88    6.186  2.74
   6547.62    6.212  2.74
   6550.36    6.243  2.74
   6553.10    6.282  2.74
   6555.84    6.343  2.74
   6558.58    6.410  2.74
   6561.32    6.466  2.74
   6564.06    6.476  2.74
   6566.80    6.405  2.74
   6569.54    6.344  2.74
   6572.28    6.285  2.74
   6575.02    6.243  2.74
   6577.76    6.212  2.74
   6580.50    6.191  2.74
   6583.24    6.177  2.74
   6585.98    6.165  2.74
   6588.72    6.155  2.74
   6591.46    6.146  2.74
   6594.20    6.141  2.74
   6596.94    6.140  2.74
   6599.68    6.136  2.74
   6602.42    6.131  2.74
   6605.16    6.126  2.74
   6607.90    6.123  2.74
   6610.64    6.124  2.74
   6613.38    6.123  2.74
   6616.12    6.118  2.74
   6618.86    6.118  2.74
   6621.60    6.119  2.74
   6624.34    6.115  2.74
   6627.08    6.111  2.74
   6629.82    6.114  2.74
   6632.56    6.116  2.74
   6635.30    6.113  2.74
   6638.04    6.122  2.74
   6640.78    6.140  2.74
   6643.52    6.127  2.74
   6646.26    6.107  2.74
   6649.00    6.109  2.74
   6651.74    6.114  2.74
   6654.48    6.118  2.74
   6657.22    6.118  2.74
   6659.96    6.114  2.74
   6662.70    6.112  2.74
   6665.44    6.110  2.74
   6668.18    6.110  2.74
   6670.92    6.110  2.74
   6673.66    6.114  2.74
   6676.40    6.117  2.74
   6679.14    6.117  2.74
   6681.88    6.116  2.74
   6684.62    6.115  2.74
   6687.36    6.114  2.74
   6690.10    6.113  2.74
   6692.84    6.113  2.74
   6695.58    6.114  2.74
   6698.32    6.113  2.74
   6701.06    6.114  2.74
   6703.80    6.116  2.74
   6706.54    6.118  2.74
   6709.28    6.119  2.74
   6712.02    6.122  2.74
   6714.76    6.120  2.74
   6717.50    6.093  2.74
   6720.24    6.082  2.74
   6722.98    6.106  2.74
   6725.72    6.116  2.74
   6728.46    6.116  2.74
   6731.20    6.114  2.74
   6733.94    6.111  2.74
   6736.68    6.112  2.74
   6739.42    6.114  2.74
   6742.16    6.114  2.74
   6744.90    6.114  2.74
   6747.64    6.114  2.74
   6750.38    6.117  2.74
   6753.12    6.121  2.74
   6755.86    6.120  2.74
   6758.60    6.117  2.74
   6761.34    6.113  2.74
   6764.08    6.112  2.74
   6766.82    6.113  2.74
   6769.56    6.115  2.74
   6772.30    6.118  2.74
   6775.04    6.118  2.74
   6777.78    6.118  2.74
   6780.52    6.122  2.74
   6783.26    6.125  2.74
   6786.00    6.124  2.74
   6788.74    6.123  2.74
   6791.48    6.120  2.74
   6794.22    6.120  2.74
   6796.96    6.121  2.74
   6799.70    6.121  2.74
   6802.44    6.122  2.74
   6805.18    6.121  2.74
   6807.92    6.119  2.74
   6810.66    6.118  2.74
   6813.40    6.118  2.74
   6816.14    6.122  2.74
   6818.88    6.123  2.74
   6821.62    6.123  2.74
   6824.36    6.123  2.74
   6827.10    6.122  2.74
   6829.84    6.125  2.74
   6832.58    6.126  2.74
   6835.32    6.122  2.74
   6838.06    6.123  2.74
   6840.80    6.127  2.74
   6843.54    6.128  2.74
   6846.28    6.128  2.74
   6849.02    6.128  2.74
   6851.76    6.128  2.74
   6854.50    6.129  2.74
   6857.24    6.130  2.74
   6859.98    6.132  2.74
   6862.72    6.131  2.74
   6865.46    6.127  2.74
   6868.20    6.125  2.74
   6870.94    6.125  2.74
   6873.68    6.126  2.74
   6876.42    6.127  2.74
   6879.16    6.128  2.74
   6881.90    6.127  2.74
   6884.64    6.125  2.74
   6887.38    6.105  2.74
   6890.12    6.085  2.74
   6892.86    6.103  2.74
   6895.60    6.121  2.74
   6898.34    6.120  2.74
   6901.08    6.124  2.74
   6903.82    6.137  2.74
   6906.56    6.135  2.74
   6909.30    6.126  2.74
   6912.04    6.126  2.74
   6914.78    6.129  2.74
   6917.52    6.131  2.74
   6920.26    6.131  2.74
   6923.00    6.124  2.74
   6925.74    6.125  2.74
   6928.48    6.131  2.74
   6931.22    6.129  2.74
   6933.96    6.126  2.74
   6936.70    6.130  2.74
   6939.44    6.134  2.74
   6942.18    6.129  2.74
   6944.92    6.128  2.74
   6947.66    6.131  2.74
   6950.40    6.130  2.74
   6953.14    6.128  2.74
   6955.88    6.128  2.74
   6958.62    6.128  2.74
   6961.36    6.129  2.74
   6964.10    6.129  2.74
   6966.84    6.128  2.74
   6969.58    6.129  2.74
   6972.32    6.133  2.74
   6975.06    6.130  2.74
   6977.80    6.126  2.74
   6980.54    6.126  2.74
   6983.28    6.126  2.74
   6986.02    6.127  2.74
   6988.76    6.127  2.74
   6991.50    6.128  2.74
   6994.24    6.128  2.74
   6996.98    6.128  2.74
   6999.72    6.129  2.74
   7002.46    6.130  2.74
   7005.20    6.131  2.74
   7007.94    6.132  2.74
   7010.68    6.132  2.74
   7013.42    6.130  2.74
   7016.16    6.124  2.74
   7018.90    6.126  2.74
   7021.64    6.131  2.74
   7024.38    6.132  2.74
   7027.12    6.131  2.74
   7029.86    6.129  2.74
   7032.60    6.129  2.74
   7035.34    6.136  2.74
   7038.08    6.137  2.74
   7040.82    6.134  2.74
   7043.56    6.128  2.74
   7046.30    6.123  2.74
   7049.04    6.125  2.74
   7051.78    6.127  2.74
   7054.52    6.126  2.74
   7057.26    6.126  2.74
   7060.00    6.126  2.74
   7062.74    6.126  2.74
   7065.48    6.127  2.74
   7068.22    6.133  2.74
   7070.96    6.138  2.74
   7073.70    6.132  2.74
   7076.44    6.128  2.74
   7079.18    6.129  2.74
   7081.92    6.131  2.74
   7084.66    6.134  2.74
   7087.40    6.132  2.74
   7090.14    6.131  2.74
   7092.88    6.134  2.74
   7095.62    6.136  2.74
   7098.36    6.137  2.74
   7101.10    6.137  2.74
   7103.84    6.136  2.74
   7106.58    6.139  2.74
   7109.32    6.144  2.74
   7112.06    6.150  2.74
   7114.80    6.153  2.74
   7117.54    6.146  2.74
   7120.28    6.142  2.74
   7123.02    6.145  2.74
   7125.76    6.143  2.74
   7128.50    6.137  2.74
   7131.24    6.134  2.74
   7133.98    6.133  2.74
   7136.72    6.133  2.74
   7139.46    6.132  2.74
   7142.20    6.127  2.74
   7144.94    6.128  2.74
   7147.68    6.136  2.74
   7150.42    6.138  2.74
   7153.16    6.138  2.74
   7155.90    6.140  2.74
   7158.64    6.142  2.74
   7161.38    6.137  2.74
   7164.12    6.139  2.74
   7166.86    6.157  2.74
   7169.60    6.157  2.74
   7172.34    6.142  2.74
   7175.08    6.138  2.74
   7177.82    6.138  2.74
   7180.56    6.138  2.74
   7183.30    6.135  2.74
   7186.04    6.119  2.74
   7188.78    6.118  2.74
   7191.52    6.143  2.74
   7194.26    6.145  2.74
   7197.00    6.137  2.74
   7199.74    6.139  2.74
   7202.48    6.143  2.74
   7205.22    6.144  2.74
   7207.96    6.143  2.74
   7210.70    6.137  2.74
   7213.44    6.137  2.74
   7216.18    6.143  2.74
   7218.92    6.141  2.74
   7221.66    6.136  2.74
   7224.40    6.136  2.74
   7227.14    6.136  2.74
   7229.88    6.138  2.74
   7232.62    6.138  2.74
   7235.36    6.137  2.74
   7238.10    6.136  2.74
   7240.84    6.133  2.74
   7243.58    6.134  2.74
   7246.32    6.137  2.74
   7249.06    6.141  2.74
   7251.80    6.143  2.74
   7254.54    6.139  2.74
   7257.28    6.136  2.74
   7260.02    6.133  2.74
   7262.76    6.132  2.74
   7265.50    6.134  2.74
   7268.24    6.137  2.74
   7270.98    6.139  2.74
   7273.72    6.137  2.74
   7276.46    6.134  2.74
   7279.20    6.131  2.74
   7281.94    6.130  2.74
   7284.68    6.131  2.74
   7287.42    6.136  2.74
   7290.16    6.142  2.74
   7292.90    6.146  2.74
   7295.64    6.147  2.74
   7298.38    6.143  2.74
   7301.12    6.139  2.74
   7303.86    6.136  2.74
   7306.60    6.134  2.74
   7309.34    6.133  2.74
   7312.08    6.135  2.74
   7314.82    6.137  2.74
   7317.56    6.136  2.74
   7320.30    6.136  2.74
   7323.04    6.137  2.74
   7325.78    6.135  2.74
   7328.52    6.130  2.74
   7331.26    6.134  2.74
   7334.00    6.140  2.74
   7336.74    6.139  2.74
   7339.48    6.137  2.74
   7342.22    6.138  2.74
   7344.96    6.139  2.74
   7347.70    6.141  2.74
   7350.44    6.144  2.74
   7353.18    6.147  2.74
   7355.92    6.141  2.74
   7358.66    6.134  2.74
   7361.40    6.130  2.74
   7364.14    6.130  2.74
   7366.88    6.137  2.74
   7369.62    6.137  2.74
   7372.36    6.134  2.74
   7375.10    6.136  2.74
   7377.84    6.138  2.74
   7380.58    6.132  2.74
   7383.32    6.130  2.74
   7386.06    6.139  2.74
   7388.80    6.145  2.74
   7391.54    6.146  2.74
   7394.28    6.147  2.74
   7397.02    6.146  2.74
   7399.76    6.145  2.74
   7402.50    6.144  2.74
   7405.24    6.142  2.74
   7407.98    6.141  2.74
   7410.72    6.143  2.74
   7413.46    6.144  2.74
   7416.20    6.144  2.74
   7418.94    6.146  2.74
   7421.68    6.148  2.74
   7424.42    6.143  2.74
   7427.16    6.138  2.74
   7429.90    6.137  2.74
   7432.64    6.138  2.74
   7435.38    6.144  2.74
   7438.12    6.145  2.74
   7440.86    6.145  2.74
   7443.60    6.143  2.74
   7446.34    6.142  2.74
   7449.08    6.143  2.74
   7451.82    6.144  2.74
   7454.56    6.145  2.74
   7457.30    6.145  2.74
   7460.04    6.143  2.74
   7462.78    6.145  2.74
   7465.52    6.147  2.74
   7468.26    6.147  2.74
   7471.00    6.147  2.74
   7473.74    6.149  2.74
   7476.48    6.150  2.74
   7479.22    6.149  2.74
   7481.96    6.148  2.74
   7484.70    6.147  2.74
   7487.44    6.146  2.74
   7490.18    6.146  2.74
   7492.92    6.151  2.74
   7495.66    6.153  2.74
   7498.40    6.144  2.74
   7501.14    6.143  2.74
   7503.88    6.149  2.74
   7506.62    6.153  2.74
   7509.36    6.156  2.74
   7512.10    6.152  2.74
   7514.84    6.147  2.74
   7517.58    6.149  2.74
   7520.32    6.149  2.74
   7523.06    6.149  2.74
   7525.80    6.140  2.74
   7528.54    6.125  2.74
   7531.28    6.134  2.74
   7534.02    6.149  2.74
   7536.76    6.152  2.74
   7539.50    6.151  2.74
   7542.24    6.145  2.74
   7544.98    6.148  2.74
   7547.72    6.162  2.74
   7550.46    6.161  2.74
   7553.20    6.155  2.74
   7555.94    6.156  2.74
   7558.68    6.156  2.74
   7561.42    6.150  2.74
   7564.16    6.150  2.74
   7566.90    6.160  2.74
   7569.64    6.160  2.74
   7572.38    6.156  2.74
   7575.12    6.159  2.74
   7577.86    6.162  2.74
   7580.60    6.156  2.74
   7583.34    6.150  2.74
   7586.08    6.145  2.74
   7588.82    6.146  2.74
   7591.56    6.156  2.74
   7594.30    6.156  2.74
   7597.04    6.152  2.74
   7599.78    6.155  2.74
   7602.52    6.160  2.74
   7605.26    6.162  2.74
   7608.00    6.163  2.74
   7610.74    6.162  2.74
   7613.48    6.162  2.74
   7616.22    6.164  2.74
   7618.96    6.162  2.74
   7621.70    6.159  2.74
   7624.44    6.157  2.74
   7627.18    6.156  2.74
   7629.92    6.155  2.74
   7632.66    6.156  2.74
   7635.40    6.161  2.74
   7638.14    6.160  2.74
   7640.88    6.155  2.74
   7643.62    6.155  2.74
   7646.36    6.155  2.74
   7649.10    6.154  2.74
   7651.84    6.156  2.74
   7654.58    6.162  2.74
   7657.32    6.164  2.74
   7660.06    6.163  2.74
   7662.80    6.167  2.74
   7665.54    6.171  2.74
   7668.28    6.165  2.74
   7671.02    6.159  2.74
   7673.76    6.160  2.74
   7676.50    6.160  2.74
   7679.24    6.160  2.74
   7681.98    6.159  2.74
   7684.72    6.156  2.74
   7687.46    6.156  2.74
   7690.20    6.156  2.74
   7692.94    6.159  2.74
   7695.68    6.163  2.74
   7698.42    6.168  2.74
   7701.16    6.171  2.74
   7703.90    6.172  2.74
   7706.64    6.172  2.74
   7709.38    6.170  2.74
   7712.12    6.166  2.74
   7714.86    6.162  2.74
   7717.60    6.159  2.74
   7720.34    6.157  2.74
   7723.08    6.154  2.74
   7725.82    6.161  2.74
   7728.56    6.174  2.74
   7731.30    6.171  2.74
   7734.04    6.166  2.74
   7736.78    6.170  2.74
   7739.52    6.175  2.74
   7742.26    6.180  2.74
   7745.00    6.179  2.74
   7747.74    6.173  2.74
   7750.48    6.171  2.74
   7753.22    6.171  2.74
   7755.96    6.174  2.74
   7758.70    6.176  2.74
   7761.44    6.169  2.74
   7764.18    6.168  2.74
   7766.92    6.175  2.74
   7769.66    6.190  2.74
   7772.40    6.211  2.74
   7775.14    6.206  2.74
   7777.88    6.192  2.74
   7780.62    6.184  2.74
   7783.36    6.178  2.74
   7786.10    6.172  2.74
   7788.84    6.172  2.74
   7791.58    6.180  2.74
   7794.32    6.181  2.74
   7797.06    6.180  2.74
   7799.80    6.175  2.74
   7802.54    6.170  2.74
   7805.28    6.174  2.74
   7808.02    6.174  2.74
   7810.76    6.167  2.74
   7813.50    6.161  2.74
   7816.24    6.157  2.74
   7818.98    6.154  2.74
   7821.72    6.154  2.74
   7824.46    6.158  2.74
   7827.20    6.161  2.74
   7829.94    6.163  2.74
   7832.68    6.165  2.74
   7835.42    6.168  2.74
   7838.16    6.172  2.74
   7840.90    6.176  2.74
   7843.64    6.175  2.74
   7846.38    6.174  2.74
   7849.12    6.181  2.74
   7851.86    6.185  2.74
   7854.60    6.181  2.74
   7857.34    6.177  2.74
   7860.08    6.171  2.74
   7862.82    6.175  2.74
   7865.56    6.182  2.74
   7868.30    6.183  2.74
   7871.04    6.183  2.74
   7873.78    6.186  2.74
   7876.52    6.185  2.74
   7879.26    6.180  2.74
   7882.00    6.174  2.74
   7884.74    6.168  2.74
   7887.48    6.164  2.74
   7890.22    6.163  2.74
   7892.96    6.168  2.74
   7895.70    6.171  2.74
   7898.44    6.170  2.74
   7901.18    6.172  2.74
   7903.92    6.178  2.74
   7906.66    6.180  2.74
   7909.40    6.181  2.74
   7912.14    6.184  2.74
   7914.88    6.187  2.74
   7917.62    6.185  2.74
   7920.36    6.182  2.74
   7923.10    6.179  2.74
   7925.84    6.177  2.74
   7928.58    6.175  2.74
   7931.32    6.172  2.74
   7934.06    6.171  2.74
   7936.80    6.177  2.74
   7939.54    6.176  2.74
   7942.28    6.158  2.74
   7945.02    6.160  2.74
   7947.76    6.180  2.74
   7950.50    6.180  2.74
   7953.24    6.174  2.74
   7955.98    6.183  2.74
   7958.72    6.190  2.74
   7961.46    6.183  2.74
   7964.20    6.179  2.74
   7966.94    6.181  2.74
   7969.68    6.180  2.74
   7972.42    6.179  2.74
   7975.16    6.177  2.74
   7977.90    6.178  2.74
   7980.64    6.193  2.74
   7983.38    6.197  2.74
   7986.12    6.175  2.74
   7988.86    6.168  2.74
   7991.60    6.176  2.74
   7994.34    6.175  2.74
   7997.08    6.174  2.74
   7999.82    6.177  2.74
   8002.56    6.181  2.74
   8005.30    6.181  2.74
   8008.04    6.182  2.74
   8010.78    6.183  2.74
   8013.52    6.180  2.74
   8016.26    6.175  2.74
   8019.00    6.181  2.74
   8021.74    6.188  2.74
   8024.48    6.182  2.74
   8027.22    6.178  2.74
   8029.96    6.185  2.74
   8032.70    6.184  2.74
   8035.44    6.172  2.74
   8038.18    6.175  2.74
   8040.92    6.185  2.74
   8043.66    6.183  2.74
   8046.40    6.179  2.74
   8049.14    6.175  2.74
   8051.88    6.175  2.74
   8054.62    6.178  2.74
   8057.36    6.180  2.74
   8060.10    6.181  2.74
   8062.84    6.177  2.74
   8065.58    6.173  2.74
   8068.32    6.179  2.74
   8071.06    6.186  2.74
   8073.80    6.187  2.74
   8076.54    6.190  2.74
   8079.28    6.194  2.74
   8082.02    6.197  2.74
   8084.76    6.198  2.74
   8087.50    6.197  2.74
   8090.24    6.195  2.74
   8092.98    6.193  2.74
   8095.72    6.193  2.74
   8098.46    6.195  2.74
   8101.20    6.196  2.74
   8103.94    6.197  2.74
   8106.68    6.195  2.74
   8109.42    6.191  2.74
   8112.16    6.190  2.74
   8114.90    6.189  2.74
   8117.64    6.186  2.74
   8120.38    6.184  2.74
   8123.12    6.183  2.74
   8125.86    6.184  2.74
   8128.60    6.186  2.74
   8131.34    6.181  2.74
   8134.08    6.176  2.74
   8136.82    6.179  2.74
   8139.56    6.181  2.74
   8142.30    6.181  2.74
   8145.04    6.183  2.74
   8147.78    6.187  2.74
   8150.52    6.189  2.74
   8153.26    6.189  2.74
   8156.00    6.184  2.74
   8158.74    6.180  2.74
   8161.48    6.179  2.74
   8164.22    6.179  2.74
   8166.96    6.180  2.74
   8169.70    6.181  2.74
   8172.44    6.182  2.74
   8175.18    6.188  2.74
   8177.92    6.195  2.74
   8180.66    6.200  2.74
   8183.40    6.202  2.74
   8186.14    6.202  2.74
   8188.88    6.198  2.74
   8191.62    6.191  2.74
   8194.36    6.193  2.74
   8197.10    6.198  2.74
   8199.84    6.196  2.74
   8202.58    6.195  2.74
   8205.32    6.197  2.74
   8208.06    6.198  2.74
   8210.80    6.195  2.74
   8213.54    6.198  2.74
   8216.28    6.205  2.74
   8219.02    6.205  2.74
   8221.76    6.202  2.74
   8224.50    6.196  2.74
   8227.24    6.193  2.74
   8229.98    6.195  2.74
   8232.72    6.197  2.74
   8235.46    6.199  2.74
   8238.20    6.199  2.74
   8240.94    6.199  2.74
   8243.68    6.198  2.74
   8246.42    6.198  2.74
   8249.16    6.203  2.74
   8251.90    6.204  2.74
   8254.64    6.198  2.74
   8257.38    6.199  2.74
   8260.12    6.204  2.74
   8262.86    6.203  2.74
   8265.60    6.200  2.74
   8268.34    6.197  2.74
   8271.08    6.196  2.74
   8273.82    6.202  2.74
   8276.56    6.203  2.74
   8279.30    6.198  2.74
   8282.04    6.200  2.74
   8284.78    6.204  2.74
   8287.52    6.202  2.74
   8290.26    6.201  2.74
   8293.00    6.208  2.74
   8295.74    6.211  2.74
   8298.48    6.207  2.74
   8301.22    6.205  2.74
   8303.96    6.205  2.74
   8306.70    6.205  2.74
   8309.44    6.205  2.74
   8312.18    6.203  2.74
   8314.92    6.201  2.74
   8317.66    6.202  2.74
   8320.40    6.203  2.74
   8323.14    6.207  2.74
   8325.88    6.211  2.74
   8328.62    6.215  2.74
   8331.36    6.218  2.74
   8334.10    6.219  2.74
   8336.84    6.214  2.74
   8339.58    6.208  2.74
   8342.32    6.204  2.74
   8345.06    6.201  2.74
   8347.80    6.201  2.74
   8350.54    6.209  2.74
   8353.28    6.219  2.74
   8356.02    6.213  2.74
   8358.76    6.208  2.74
   8361.50    6.212  2.74
   8364.24    6.214  2.74
   8366.98    6.214  2.74
   8369.72    6.215  2.74
   8372.46    6.215  2.74
   8375.20    6.209  2.74
   8377.94    6.203  2.74
   8380.68    6.204  2.74
   8383.42    6.204  2.74
   8386.16    6.202  2.74
   8388.90    6.202  2.74
   8391.64    6.205  2.74
   8394.38    6.205  2.74
   8397.12    6.204  2.74
   8399.86    6.198  2.74
   8402.60    6.196  2.74
   8405.34    6.205  2.74
   8408.08    6.212  2.74
   8410.82    6.216  2.74
   8413.56    6.216  2.74
   8416.30    6.214  2.74
   8419.04    6.208  2.74
   8421.78    6.203  2.74
   8424.52    6.207  2.74
   8427.26    6.212  2.74
   8430.00    6.214  2.74
   8432.74    6.217  2.74
   8435.48    6.221  2.74
   8438.22    6.223  2.74
   8440.96    6.224  2.74
   8443.70    6.224  2.74
   8446.44    6.220  2.74
   8449.18    6.203  2.74
   8451.92    6.193  2.74
   8454.66    6.193  2.74
   8457.40    6.195  2.74
   8460.14    6.201  2.74
   8462.88    6.211  2.74
   8465.62    6.221  2.74
   8468.36    6.219  2.74
   8471.10    6.217  2.74
   8473.84    6.224  2.74
   8476.58    6.210  2.74
   8479.32    6.172  2.74
   8482.06    6.183  2.74
   8484.80    6.216  2.74
   8487.54    6.219  2.74
   8490.28    6.220  2.74
   8493.02    6.234  2.74
   8495.76    6.245  2.74
   8498.50    6.253  2.74
   8501.24    6.248  2.74
   8503.98    6.233  2.74
   8506.72    6.220  2.74
   8509.46    6.207  2.74
   8512.20    6.197  2.74
   8514.94    6.192  2.74
   8517.68    6.195  2.74
   8520.42    6.200  2.74
   8523.16    6.209  2.74
   8525.90    6.210  2.74
   8528.64    6.209  2.74
   8531.38    6.214  2.74
   8534.12    6.225  2.74
   8536.86    6.251  2.74
   8539.60    6.270  2.74
   8542.34    6.285  2.74
   8545.08    6.275  2.74
   8547.82    6.246  2.74
   8550.56    6.230  2.74
   8553.30    6.218  2.74
   8556.04    6.213  2.74
   8558.78    6.208  2.74
   8561.52    6.197  2.74
   8564.26    6.194  2.74
   8567.00    6.201  2.74
   8569.74    6.202  2.74
   8572.48    6.199  2.74
   8575.22    6.200  2.74
   8577.96    6.202  2.74
   8580.70    6.208  2.74
   8583.44    6.215  2.74
   8586.18    6.221  2.74
   8588.92    6.231  2.74
   8591.66    6.244  2.74
   8594.40    6.247  2.74
   8597.14    6.244  2.74
   8599.88    6.243  2.74
   8602.62    6.237  2.74
   8605.36    6.217  2.74
   8608.10    6.203  2.74
   8610.84    6.196  2.74
   8613.58    6.190  2.74
   8616.32    6.187  2.74
   8619.06    6.182  2.74
   8621.80    6.179  2.74
   8624.54    6.179  2.74
   8627.28    6.181  2.74
   8630.02    6.188  2.74
   8632.76    6.192  2.74
   8635.50    6.195  2.74
   8638.24    6.198  2.74
   8640.98    6.202  2.74
   8643.72    6.200  2.74
   8646.46    6.201  2.74
   8649.20    6.210  2.74
   8651.94    6.228  2.74
   8654.68    6.259  2.74
   8657.42    6.287  2.74
   8660.16    6.312  2.74
   8662.90    6.313  2.74
   8665.64    6.300  2.74
   8668.38    6.274  2.74
   8671.12    6.249  2.74
   8673.86    6.226  2.74
   8676.60    6.210  2.74
   8679.34    6.200  2.74
   8682.08    6.192  2.74
   8684.82    6.187  2.74
   8687.56    6.195  2.74
   8690.30    6.201  2.74
   8693.04    6.195  2.74
   8695.78    6.194  2.74
   8698.52    6.204  2.74
   8701.26    6.200  2.74
   8704.00    6.186  2.74
   8706.74    6.190  2.74
   8709.48    6.195  2.74
   8712.22    6.188  2.74
   8714.96    6.188  2.74
   8717.70    6.205  2.74
   8720.44    6.212  2.74
   8723.18    6.208  2.74
   8725.92    6.207  2.74
   8728.66    6.205  2.74
   8731.40    6.202  2.74
   8734.14    6.203  2.74
   8736.88    6.213  2.74
   8739.62    6.230  2.74
   8742.36    6.259  2.74
   8745.10    6.286  2.74
   8747.84    6.313  2.74
   8750.58    6.323  2.74
   8753.32    6.319  2.74
   8756.06    6.296  2.74
   8758.80    6.270  2.74
   8761.54    6.241  2.74
   8764.28    6.223  2.74
   8767.02    6.217  2.74
   8769.76    6.206  2.74
   8772.50    6.197  2.74
   8775.24    6.204  2.74
   8777.98    6.211  2.74
   8780.72    6.203  2.74
   8783.46    6.196  2.74
   8786.20    6.190  2.74
   8788.94    6.185  2.74
   8791.68    6.180  2.74
   8794.42    6.176  2.74
   8797.16    6.174  2.74
   8799.90    6.172  2.74
   8802.64    6.174  2.74
   8805.38    6.190  2.74
   8808.12    6.194  2.74
   8810.86    6.184  2.74
   8813.60    6.186  2.74
   8816.34    6.193  2.74
   8819.08    6.197  2.74
   8821.82    6.200  2.74
   8824.56    6.200  2.74
   8827.30    6.198  2.74
   8830.04    6.189  2.74
   8832.78    6.186  2.74
   8835.52    6.187  2.74
   8838.26    6.193  2.74
   8841.00    6.204  2.74
   8843.74    6.217  2.74
   8846.48    6.233  2.74
   8849.22    6.254  2.74
   8851.96    6.274  2.74
   8854.70    6.293  2.74
   8857.44    6.318  2.74
   8860.18    6.342  2.74
   8862.92    6.336  2.74
   8865.66    6.315  2.74
   8868.40    6.291  2.74
   8871.14    6.271  2.74
   8873.88    6.258  2.74
   8876.62    6.247  2.74
   8879.36    6.237  2.74
   8882.10    6.232  2.74
   8884.84    6.229  2.74
   8887.58    6.227  2.74
   8890.32    6.223  2.74
   8893.06    6.216  2.74
   8895.80    6.207  2.74
   8898.54    6.195  2.74
   8901.28    6.192  2.74
   8904.02    6.193  2.74
   8906.76    6.187  2.74
   8909.50    6.180  2.74
   8912.24    6.176  2.74
   8914.98    6.173  2.74
   8917.72    6.168  2.74
   8920.46    6.172  2.74
   8923.20    6.183  2.74
   8925.94    6.187  2.74
   8928.68    6.189  2.74
   8931.42    6.197  2.74
   8934.16    6.202  2.74
   8936.90    6.196  2.74
   8939.64    6.193  2.74
   8942.38    6.196  2.74
   8945.12    6.193  2.74
   8947.86    6.185  2.74
   8950.60    6.175  2.74
   8953.34    6.167  2.74
   8956.08    6.166  2.74
   8958.82    6.170  2.74
   8961.56    6.180  2.74
   8964.30    6.186  2.74
   8967.04    6.190  2.74
   8969.78    6.194  2.74
   8972.52    6.197  2.74
   8975.26    6.201  2.74
   8978.00    6.204  2.74
   8980.74    6.205  2.74
   8983.48    6.204  2.74
   8986.22    6.201  2.74
   8988.96    6.195  2.74
   8991.70    6.188  2.74
   8994.44    6.200  2.74
   8997.18    6.221  2.74
   8999.92    6.244  2.74
   9002.66    6.266  2.74
   9005.40    6.284  2.74
   9008.14    6.310  2.74
   9010.88    6.350  2.74
   9013.62    6.363  2.74
   9016.36    6.358  2.74
   9019.10    6.345  2.74
   9021.84    6.323  2.74
   9024.58    6.292  2.74
   9027.32    6.265  2.74
   9030.06    6.242  2.74
   9032.80    6.229  2.74
   9035.54    6.225  2.74
   9038.28    6.221  2.74
   9041.02    6.218  2.74
   9043.76    6.210  2.74
   9046.50    6.203  2.74
   9049.24    6.200  2.74
   9051.98    6.200  2.74
   9054.72    6.201  2.74
   9057.46    6.219  2.74
   9060.20    6.246  2.74
   9062.94    6.242  2.74
   9065.68    6.227  2.74
   9068.42    6.209  2.74
   9071.16    6.198  2.74
   9073.90    6.197  2.74
   9076.64    6.198  2.74
   9079.38    6.204  2.74
   9082.12    6.205  2.74
   9084.86    6.207  2.74
   9087.60    6.224  2.74
   9090.34    6.235  2.74
   9093.08    6.226  2.74
   9095.82    6.219  2.74
   9098.56    6.217  2.74
   9101.30    6.207  2.74
   9104.04    6.193  2.74
   9106.78    6.198  2.74
   9109.52    6.207  2.74
   9112.26    6.212  2.74
   9115.00    6.208  2.74
   9117.74    6.188  2.74
   9120.48    6.178  2.74
   9123.22    6.176  2.74
   9125.96    6.170  2.74
   9128.70    6.165  2.74
   9131.44    6.156  2.74
   9134.18    6.152  2.74
   9136.92    6.163  2.74
   9139.66    6.173  2.74
   9142.40    6.180  2.74
   9145.14    6.192  2.74
   9147.88    6.205  2.74
   9150.62    6.205  2.74
   9153.36    6.201  2.74
   9156.10    6.199  2.74
   9158.84    6.196  2.74
   9161.58    6.188  2.74
   9164.32    6.188  2.74
   9167.06    6.198  2.74
   9169.80    6.201  2.74
   9172.54    6.201  2.74
   9175.28    6.197  2.74
   9178.02    6.191  2.74
   9180.76    6.184  2.74
   9183.50    6.183  2.74
   9186.24    6.189  2.74
   9188.98    6.184  2.74
   9191.72    6.173  2.74
   9194.46    6.179  2.74
   9197.20    6.192  2.74
   9199.94    6.203  2.74
   9202.68    6.218  2.74
   9205.42    6.238  2.74
   9208.16    6.257  2.74
   9210.90    6.275  2.74
   9213.64    6.290  2.74
   9216.38    6.304  2.74
   9219.12    6.324  2.74
   9221.86    6.346  2.74
   9224.60    6.374  2.74
   9227.34    6.395  2.74
   9230.08    6.415  2.74
   9232.82    6.400  2.74
   9235.56    6.360  2.74
   9238.30    6.332  2.74
   9241.04    6.302  2.74
   9243.78    6.264  2.74
   9246.52    6.236  2.74
   9249.26    6.227  2.74
   9252.00    6.217  2.74
   9254.74    6.206  2.74
   9257.48    6.203  2.74
   9260.22    6.204  2.74
   9262.96    6.209  2.74
   9265.70    6.213  2.74
   9268.44    6.209  2.74
   9271.18    6.208  2.74
   9273.92    6.214  2.74
   9276.66    6.217  2.74
   9279.40    6.220  2.74
   9282.14    6.220  2.74
   9284.88    6.219  2.74
   9287.62    6.217  2.74
   9290.36    6.218  2.74
   9293.10    6.223  2.74
   9295.84    6.225  2.74
   9298.58    6.224  2.74
   9301.32    6.218  2.74
   9304.06    6.209  2.74
   9306.80    6.204  2.74
   9309.54    6.201  2.74
   9312.28    6.197  2.74
   9315.02    6.195  2.74
   9317.76    6.198  2.74
   9320.50    6.196  2.74
   9323.24    6.191  2.74
   9325.98    6.187  2.74
   9328.72    6.183  2.74
   9331.46    6.176  2.74
   9334.20    6.170  2.74
   9336.94    6.169  2.74
   9339.68    6.174  2.74
   9342.42    6.189  2.74
   9345.16    6.193  2.74
   9347.90    6.191  2.74
   9350.64    6.192  2.74
   9353.38    6.192  2.74
   9356.12    6.189  2.74
   9358.86    6.189  2.74
   9361.60    6.193  2.74
   9364.34    6.201  2.74
   9367.08    6.212  2.74
   9369.82    6.214  2.74
   9372.56    6.213  2.74
   9375.30    6.215  2.74
   9378.04    6.216  2.74
   9380.78    6.214  2.74
   9383.52    6.214  2.74
   9386.26    6.217  2.74
   9389.00    6.215  2.74
   9391.74    6.211  2.74
   9394.48    6.211  2.74
   9397.22    6.213  2.74
   9399.96    6.219  2.74
   9402.70    6.223  2.74
   9405.44    6.222  2.74
   9408.18    6.216  2.74
   9410.92    6.204  2.74
   9413.66    6.197  2.74
   9416.40    6.192  2.74
   9419.14    6.190  2.74
   9421.88    6.190  2.74
   9424.62    6.194  2.74
   9427.36    6.199  2.74
   9430.10    6.204  2.74
   9432.84    6.206  2.74
   9435.58    6.207  2.74
   9438.32    6.208  2.74
   9441.06    6.209  2.74
   9443.80    6.209  2.74
   9446.54    6.209  2.74
   9449.28    6.211  2.74
   9452.02    6.214  2.74
   9454.76    6.218  2.74
   9457.50    6.216  2.74
   9460.24    6.213  2.74
   9462.98    6.220  2.74
   9465.72    6.226  2.74
   9468.46    6.223  2.74
   9471.20    6.220  2.74
   9473.94    6.217  2.74
   9476.68    6.215  2.74
   9479.42    6.214  2.74
   9482.16    6.213  2.74
   9484.90    6.214  2.74
   9487.64    6.219  2.74
   9490.38    6.224  2.74
   9493.12    6.227  2.74
   9495.86    6.230  2.74
   9498.60    6.236  2.74
   9501.34    6.232  2.74
   9504.08    6.224  2.74
   9506.82    6.229  2.74
   9509.56    6.235  2.74
   9512.30    6.227  2.74
   9515.04    6.227  2.74
   9517.78    6.242  2.74
   9520.52    6.248  2.74
   9523.26    6.249  2.74
   9526.00    6.257  2.74
   9528.74    6.270  2.74
   9531.48    6.282  2.74
   9534.22    6.302  2.74
   9536.96    6.334  2.74
   9539.70    6.367  2.74
   9542.44    6.406  2.74
   9545.18    6.426  2.74
   9547.92    6.432  2.74
   9550.66    6.410  2.74
   9553.40    6.378  2.74
   9556.14    6.354  2.74
   9558.88    6.331  2.74
   9561.62    6.309  2.74
   9564.36    6.290  2.74
   9567.10    6.274  2.74
   9569.84    6.266  2.74
   9572.58    6.263  2.74
   9575.32    6.258  2.74
   9578.06    6.256  2.74
   9580.80    6.264  2.74
   9583.54    6.262  2.74
   9586.28    6.244  2.74
   9589.02    6.242  2.74
   9591.76    6.247  2.74
   9594.50    6.240  2.74
   9597.24    6.233  2.74
   9599.98    6.236  2.74
   9602.72    6.237  2.74
   9605.46    6.234  2.74
   9608.20    6.211  2.74
   9610.94    6.167  2.74
   9613.68    6.182  2.74
   9616.42    6.219  2.74
   9619.16    6.231  2.74
   9621.90    6.234  2.74
   9624.64    6.228  2.74
   9627.38    6.225  2.74
   9630.12    6.224  2.74
   9632.86    6.231  2.74
   9635.60    6.243  2.74
   9638.34    6.243  2.74
   9641.08    6.240  2.74
   9643.82    6.245  2.74
   9646.56    6.250  2.74
   9649.30    6.254  2.74
   9652.04    6.261  2.74
   9654.78    6.272  2.74
   9657.52    6.269  2.74
   9660.26    6.260  2.74
   9663.00    6.253  2.74
   9665.74    6.247  2.74
   9668.48    6.240  2.74
   9671.22    6.238  2.74
   9673.96    6.242  2.74
   9676.70    6.242  2.74
   9679.44    6.240  2.74
   9682.18    6.245  2.74
   9684.92    6.250  2.74
   9687.66    6.241  2.74
   9690.40    6.232  2.74
   9693.14    6.229  2.74
   9695.88    6.217  2.74
   9698.62    6.195  2.74
   9701.36    6.203  2.74
   9704.10    6.224  2.74
   9706.84    6.221  2.74
   9709.58    6.216  2.74
   9712.32    6.221  2.74
   9715.06    6.224  2.74
   9717.80    6.223  2.74
   9720.54    6.227  2.74
   9723.28    6.235  2.74
   9726.02    6.233  2.74
   9728.76    6.229  2.74
   9731.50    6.234  2.74
   9734.24    6.235  2.74
   9736.98    6.225  2.74
   9739.72    6.225  2.74
   9742.46    6.233  2.74
   9745.20    6.240  2.74
   9747.94    6.246  2.74
   9750.68    6.244  2.74
   9753.42    6.241  2.74
   9756.16    6.244  2.74
   9758.90    6.243  2.74
   9761.64    6.235  2.74
   9764.38    6.236  2.74
   9767.12    6.246  2.74
   9769.86    6.244  2.74
   9772.60    6.238  2.74
   9775.34    6.233  2.74
   9778.08    6.229  2.74
   9780.82    6.225  2.74
   9783.56    6.224  2.74
   9786.30    6.227  2.74
   9789.04    6.229  2.74
   9791.78    6.231  2.74
   9794.52    6.218  2.74
   9797.26    6.204  2.74
   9800.00    6.201  2.74
   9802.74    6.203  2.74
   9805.48    6.209  2.74
   9808.22    6.219  2.74
   9810.96    6.231  2.74
   9813.70    6.237  2.74
   9816.44    6.241  2.74
   9819.18    6.246  2.74
   9821.92    6.247  2.74
   9824.66    6.240  2.74
   9827.40    6.235  2.74
   9830.14    6.232  2.74
   9832.88    6.232  2.74
   9835.62    6.233  2.74
   9838.36    6.232  2.74
   9841.10    6.232  2.74
   9843.84    6.237  2.74
   9846.58    6.242  2.74
   9849.32    6.246  2.74
   9852.06    6.245  2.74
   9854.80    6.240  2.74
   9857.54    6.240  2.74
   9860.28    6.241  2.74
   9863.02    6.240  2.74
   9865.76    6.238  2.74
   9868.50    6.234  2.74
   9871.24    6.233  2.74
   9873.98    6.234  2.74
   9876.72    6.231  2.74
   9879.46    6.227  2.74
   9882.20    6.227  2.74
   9884.94    6.231  2.74
   9887.68    6.243  2.74
   9890.42    6.251  2.74
   9893.16    6.249  2.74
   9895.90    6.252  2.74
   9898.64    6.261  2.74
   9901.38    6.254  2.74
   9904.12    6.241  2.74
   9906.86    6.248  2.74
   9909.60    6.255  2.74
   9912.34    6.248  2.74
   9915.08    6.248  2.74
   9917.82    6.260  2.74
   9920.56    6.263  2.74
   9923.30    6.261  2.74
   9926.04    6.256  2.74
   9928.78    6.249  2.74
   9931.52    6.239  2.74
   9934.26    6.235  2.74
   9937.00    6.245  2.74
   9939.74    6.247  2.74
   9942.48    6.239  2.74
   9945.22    6.238  2.74
   9947.96    6.240  2.74
   9950.70    6.233  2.74
   9953.44    6.231  2.74
   9956.18    6.244  2.74
   9958.92    6.249  2.74
   9961.66    6.237  2.74
   9964.40    6.235  2.74
   9967.14    6.239  2.74
   9969.88    6.243  2.74
   9972.62    6.248  2.74
   9975.36    6.250  2.74
   9978.10    6.253  2.74
   9980.84    6.261  2.74
   9983.58    6.264  2.74
   9986.32    6.264  2.74
   9989.06    6.263  2.74
   9991.80    6.262  2.74
   9994.54    6.263  2.74
   9997.28    6.263  2.74
  10000.02    6.259  2.74
  10002.76    6.257  2.74
  10005.50    6.262  2.74
  10008.24    6.261  2.74
  10010.98    6.256  2.74
  10013.72    6.258  2.74
  10016.46    6.265  2.74
  10019.20    6.273  2.74
  10021.94    6.283  2.74
  10024.68    6.291  2.74
  10027.42    6.301  2.74
  10030.16    6.314  2.74
  10032.90    6.322  2.74
  10035.64    6.328  2.74
  10038.38    6.355  2.74
  10041.12    6.384  2.74
  10043.86    6.402  2.74
  10046.60    6.421  2.74
  10049.34    6.455  2.74
  10052.08    6.452  2.74
  10054.82    6.416  2.74
  10057.56    6.393  2.74
  10060.30    6.370  2.74
  10063.04    6.347  2.74
  10065.78    6.327  2.74
  10068.52    6.308  2.74
  10071.26    6.308  2.74
  10074.00    6.340  2.74
  10076.74    6.317  2.74
  10079.48    6.269  2.74
  10082.22    6.264  2.74
  10084.96    6.269  2.74
  10087.70    6.270  2.74
  10090.44    6.263  2.74
  10093.18    6.236  2.74
  10095.92    6.235  2.74
  10098.66    6.258  2.74
  10101.40    6.256  2.74
  10104.14    6.248  2.74
  10106.88    6.252  2.74
  10109.62    6.269  2.74
  10112.36    6.327  2.74
  10115.10    6.330  2.74
  10117.84    6.238  2.74
  10120.58    6.239  2.74
  10123.32    6.286  2.74
  10126.06    6.289  2.74
  10128.80    6.282  2.74
  10131.54    6.280  2.74
  10134.28    6.275  2.74
  10137.02    6.265  2.74
  10139.76    6.264  2.74
  10142.50    6.275  2.74
  10145.24    6.269  2.74
  10147.98    6.260  2.74
  10150.72    6.271  2.74
  10153.46    6.277  2.74
  10156.20    6.259  2.74
  10158.94    6.248  2.74
  10161.68    6.249  2.74
  10164.42    6.254  2.74
  10167.16    6.264  2.74
  10169.90    6.238  2.74
  10172.64    6.212  2.74
  10175.38    6.238  2.74
  10178.12    6.257  2.74
  10180.86    6.245  2.74
  10183.60    6.239  2.74
  10186.34    6.236  2.74
  10189.08    6.187  2.74
  10191.82    6.194  2.74
