#HD16031                                                     
#                                                            
#  heap-Lindler STIS                                         
# wavelength  ABmag  band
   2950.00   11.503  2.74
   2952.74   11.462  2.74
   2955.48   11.462  2.74
   2958.22   11.431  2.74
   2960.96   11.429  2.74
   2963.70   11.425  2.74
   2966.44   11.516  2.74
   2969.18   11.507  2.74
   2971.92   11.487  2.74
   2974.66   11.424  2.74
   2977.40   11.395  2.74
   2980.14   11.424  2.74
   2982.88   11.477  2.74
   2985.62   11.536  2.74
   2988.36   11.441  2.74
   2991.10   11.389  2.74
   2993.84   11.390  2.74
   2996.58   11.387  2.74
   2999.32   11.416  2.74
   3002.06   11.468  2.74
   3004.80   11.422  2.74
   3007.54   11.406  2.74
   3010.28   11.378  2.74
   3013.02   11.379  2.74
   3015.76   11.403  2.74
   3018.50   11.445  2.74
   3021.24   11.474  2.74
   3023.98   11.363  2.74
   3026.72   11.357  2.74
   3029.46   11.354  2.74
   3032.20   11.361  2.74
   3034.94   11.306  2.74
   3037.68   11.335  2.74
   3040.42   11.349  2.74
   3043.16   11.357  2.74
   3045.90   11.334  2.74
   3048.64   11.334  2.74
   3051.38   11.318  2.74
   3054.12   11.320  2.74
   3056.86   11.361  2.74
   3059.60   11.419  2.74
   3062.34   11.383  2.74
   3065.08   11.416  2.74
   3067.82   11.429  2.74
   3070.56   11.375  2.74
   3073.30   11.361  2.74
   3076.04   11.346  2.74
   3078.78   11.347  2.74
   3081.52   11.332  2.74
   3084.26   11.297  2.74
   3087.00   11.337  2.74
   3089.74   11.423  2.74
   3092.48   11.434  2.74
   3095.22   11.414  2.74
   3097.96   11.434  2.74
   3100.70   11.423  2.74
   3103.44   11.347  2.74
   3106.18   11.304  2.74
   3108.92   11.285  2.74
   3111.66   11.272  2.74
   3114.40   11.299  2.74
   3117.14   11.300  2.74
   3119.88   11.333  2.74
   3122.62   11.339  2.74
   3125.36   11.339  2.74
   3128.10   11.328  2.74
   3130.84   11.315  2.74
   3133.58   11.293  2.74
   3136.32   11.277  2.74
   3139.06   11.258  2.74
   3141.80   11.300  2.74
   3144.54   11.329  2.74
   3147.28   11.324  2.74
   3150.02   11.247  2.74
   3152.76   11.260  2.74
   3155.50   11.296  2.74
   3158.24   11.332  2.74
   3160.98   11.341  2.74
   3163.72   11.295  2.74
   3166.46   11.264  2.74
   3169.20   11.249  2.74
   3171.94   11.208  2.74
   3174.68   11.189  2.74
   3177.42   11.245  2.74
   3180.16   11.315  2.74
   3182.90   11.298  2.74
   3185.64   11.268  2.74
   3188.38   11.257  2.74
   3191.12   11.272  2.74
   3193.86   11.286  2.74
   3196.60   11.248  2.74
   3199.34   11.194  2.74
   3202.08   11.150  2.74
   3204.82   11.151  2.74
   3207.56   11.163  2.74
   3210.30   11.233  2.74
   3213.04   11.293  2.74
   3215.78   11.254  2.74
   3218.52   11.225  2.74
   3221.26   11.196  2.74
   3224.00   11.195  2.74
   3226.74   11.223  2.74
   3229.48   11.243  2.74
   3232.22   11.256  2.74
   3234.96   11.249  2.74
   3237.70   11.218  2.74
   3240.44   11.189  2.74
   3243.18   11.150  2.74
   3245.92   11.142  2.74
   3248.66   11.176  2.74
   3251.40   11.156  2.74
   3254.14   11.160  2.74
   3256.88   11.115  2.74
   3259.62   11.097  2.74
   3262.36   11.092  2.74
   3265.10   11.093  2.74
   3267.84   11.085  2.74
   3270.58   11.108  2.74
   3273.32   11.109  2.74
   3276.06   11.109  2.74
   3278.80   11.115  2.74
   3281.54   11.102  2.74
   3284.28   11.081  2.74
   3287.02   11.080  2.74
   3289.76   11.070  2.74
   3292.50   11.038  2.74
   3295.24   11.021  2.74
   3297.98   11.032  2.74
   3300.72   11.020  2.74
   3303.46   11.053  2.74
   3306.20   11.056  2.74
   3308.94   11.060  2.74
   3311.68   11.056  2.74
   3314.42   11.037  2.74
   3317.16   11.058  2.74
   3319.90   11.053  2.74
   3322.64   11.063  2.74
   3325.38   11.060  2.74
   3328.12   11.057  2.74
   3330.86   11.055  2.74
   3333.60   11.048  2.74
   3336.34   11.061  2.74
   3339.08   11.070  2.74
   3341.82   11.083  2.74
   3344.56   11.014  2.74
   3347.30   11.053  2.74
   3350.04   11.070  2.74
   3352.78   11.009  2.74
   3355.52   11.012  2.74
   3358.26   11.021  2.74
   3361.00   11.019  2.74
   3363.74   11.075  2.74
   3366.48   11.045  2.74
   3369.22   11.073  2.74
   3371.96   11.078  2.74
   3374.70   11.050  2.74
   3377.44   11.024  2.74
   3380.18   11.067  2.74
   3382.92   11.052  2.74
   3385.66   11.015  2.74
   3388.40   11.002  2.74
   3391.14   10.998  2.74
   3393.88   11.014  2.74
   3396.62   10.971  2.74
   3399.36   10.950  2.74
   3402.10   10.976  2.74
   3404.84   10.987  2.74
   3407.58   11.000  2.74
   3410.32   11.009  2.74
   3413.06   10.999  2.74
   3415.80   11.009  2.74
   3418.54   10.966  2.74
   3421.28   10.952  2.74
   3424.02   10.983  2.74
   3426.76   10.951  2.74
   3429.50   10.941  2.74
   3432.24   10.951  2.74
   3434.98   10.933  2.74
   3437.72   10.940  2.74
   3440.46   11.003  2.74
   3443.20   11.021  2.74
   3445.94   10.990  2.74
   3448.68   10.958  2.74
   3451.42   10.948  2.74
   3454.16   10.949  2.74
   3456.90   10.934  2.74
   3459.64   10.948  2.74
   3462.38   10.953  2.74
   3465.12   10.956  2.74
   3467.86   10.924  2.74
   3470.60   10.905  2.74
   3473.34   10.935  2.74
   3476.08   10.965  2.74
   3478.82   10.931  2.74
   3481.56   10.899  2.74
   3484.30   10.924  2.74
   3487.04   10.911  2.74
   3489.78   10.924  2.74
   3492.52   10.935  2.74
   3495.26   10.937  2.74
   3498.00   10.941  2.74
   3500.74   10.892  2.74
   3503.48   10.863  2.74
   3506.22   10.918  2.74
   3508.96   10.918  2.74
   3511.70   10.915  2.74
   3514.44   10.912  2.74
   3517.18   10.881  2.74
   3519.92   10.890  2.74
   3522.66   10.930  2.74
   3525.40   10.958  2.74
   3528.14   10.936  2.74
   3530.88   10.883  2.74
   3533.62   10.859  2.74
   3536.36   10.856  2.74
   3539.10   10.852  2.74
   3541.84   10.861  2.74
   3544.58   10.862  2.74
   3547.32   10.837  2.74
   3550.06   10.813  2.74
   3552.80   10.836  2.74
   3555.54   10.856  2.74
   3558.28   10.842  2.74
   3561.02   10.849  2.74
   3563.76   10.843  2.74
   3566.50   10.895  2.74
   3569.24   10.888  2.74
   3571.98   10.925  2.74
   3574.72   10.917  2.74
   3577.46   10.869  2.74
   3580.20   10.883  2.74
   3582.94   10.906  2.74
   3585.68   10.917  2.74
   3588.42   10.914  2.74
   3591.16   10.859  2.74
   3593.90   10.823  2.74
   3596.64   10.810  2.74
   3599.38   10.795  2.74
   3602.12   10.827  2.74
   3604.86   10.841  2.74
   3607.60   10.857  2.74
   3610.34   10.844  2.74
   3613.08   10.853  2.74
   3615.82   10.815  2.74
   3618.56   10.855  2.74
   3621.30   10.839  2.74
   3624.04   10.807  2.74
   3626.78   10.795  2.74
   3629.52   10.793  2.74
   3632.26   10.836  2.74
   3635.00   10.828  2.74
   3637.74   10.784  2.74
   3640.48   10.767  2.74
   3643.22   10.810  2.74
   3645.96   10.806  2.74
   3648.70   10.808  2.74
   3651.44   10.784  2.74
   3654.18   10.752  2.74
   3656.92   10.736  2.74
   3659.66   10.741  2.74
   3662.40   10.753  2.74
   3665.14   10.734  2.74
   3667.88   10.739  2.74
   3670.62   10.747  2.74
   3673.36   10.732  2.74
   3676.10   10.755  2.74
   3678.84   10.773  2.74
   3681.58   10.787  2.74
   3684.32   10.770  2.74
   3687.06   10.784  2.74
   3689.80   10.767  2.74
   3692.54   10.732  2.74
   3695.28   10.719  2.74
   3698.02   10.725  2.74
   3700.76   10.698  2.74
   3703.50   10.764  2.74
   3706.24   10.798  2.74
   3708.98   10.768  2.74
   3711.72   10.758  2.74
   3714.46   10.687  2.74
   3717.20   10.663  2.74
   3719.94   10.720  2.74
   3722.68   10.799  2.74
   3725.42   10.689  2.74
   3728.16   10.613  2.74
   3730.90   10.652  2.74
   3733.64   10.806  2.74
   3736.38   10.830  2.74
   3739.12   10.669  2.74
   3741.86   10.578  2.74
   3744.60   10.637  2.74
   3747.34   10.715  2.74
   3750.08   10.837  2.74
   3752.82   10.726  2.74
   3755.56   10.561  2.74
   3758.30   10.552  2.74
   3761.04   10.542  2.74
   3763.78   10.543  2.74
   3766.52   10.586  2.74
   3769.26   10.725  2.74
   3772.00   10.774  2.74
   3774.74   10.585  2.74
   3777.48   10.474  2.74
   3780.22   10.416  2.74
   3782.96   10.410  2.74
   3785.70   10.412  2.74
   3788.44   10.460  2.74
   3791.18   10.469  2.74
   3793.92   10.549  2.74
   3796.66   10.739  2.74
   3799.40   10.789  2.74
   3802.14   10.579  2.74
   3804.88   10.463  2.74
   3807.62   10.410  2.74
   3810.36   10.373  2.74
   3813.10   10.377  2.74
   3815.84   10.417  2.74
   3818.58   10.390  2.74
   3821.32   10.402  2.74
   3824.06   10.418  2.74
   3826.80   10.483  2.74
   3829.54   10.545  2.74
   3832.28   10.654  2.74
   3835.02   10.845  2.74
   3837.76   10.783  2.74
   3840.50   10.589  2.74
   3843.24   10.446  2.74
   3845.98   10.388  2.74
   3848.72   10.345  2.74
   3851.46   10.333  2.74
   3854.20   10.301  2.74
   3856.94   10.330  2.74
   3859.68   10.355  2.74
   3862.42   10.314  2.74
   3865.16   10.308  2.74
   3867.90   10.302  2.74
   3870.64   10.301  2.74
   3873.38   10.350  2.74
   3876.12   10.356  2.74
   3878.86   10.396  2.74
   3881.60   10.392  2.74
   3884.34   10.339  2.74
   3887.08   10.621  2.74
   3889.82   10.758  2.74
   3892.56   10.587  2.74
   3895.30   10.465  2.74
   3898.04   10.390  2.74
   3900.78   10.371  2.74
   3903.52   10.353  2.74
   3906.26   10.346  2.74
   3909.00   10.299  2.74
   3911.74   10.275  2.74
   3914.48   10.284  2.74
   3917.22   10.289  2.74
   3919.96   10.298  2.74
   3922.70   10.314  2.74
   3925.44   10.323  2.74
   3928.18   10.427  2.74
   3930.92   10.711  2.74
   3933.66   11.081  2.74
   3936.40   10.799  2.74
   3939.14   10.460  2.74
   3941.88   10.321  2.74
   3944.62   10.292  2.74
   3947.36   10.285  2.74
   3950.10   10.291  2.74
   3952.84   10.289  2.74
   3955.58   10.308  2.74
   3958.32   10.321  2.74
   3961.06   10.363  2.74
   3963.80   10.474  2.74
   3966.54   10.777  2.74
   3969.28   11.081  2.74
   3972.02   10.798  2.74
   3974.76   10.474  2.74
   3977.50   10.349  2.74
   3980.24   10.287  2.74
   3982.98   10.272  2.74
   3985.72   10.257  2.74
   3988.46   10.219  2.74
   3991.20   10.220  2.74
   3993.94   10.207  2.74
   3996.68   10.213  2.74
   3999.42   10.204  2.74
   4002.16   10.182  2.74
   4004.90   10.197  2.74
   4007.64   10.203  2.74
   4010.38   10.199  2.74
   4013.12   10.171  2.74
   4015.86   10.169  2.74
   4018.60   10.162  2.74
   4021.34   10.157  2.74
   4024.08   10.168  2.74
   4026.82   10.164  2.74
   4029.56   10.176  2.74
   4032.30   10.183  2.74
   4035.04   10.170  2.74
   4037.78   10.150  2.74
   4040.52   10.154  2.74
   4043.26   10.160  2.74
   4046.00   10.173  2.74
   4048.74   10.153  2.74
   4051.48   10.144  2.74
   4054.22   10.140  2.74
   4056.96   10.157  2.74
   4059.70   10.163  2.74
   4062.44   10.171  2.74
   4065.18   10.171  2.74
   4067.92   10.154  2.74
   4070.66   10.170  2.74
   4073.40   10.170  2.74
   4076.14   10.178  2.74
   4078.88   10.178  2.74
   4081.62   10.170  2.74
   4084.36   10.176  2.74
   4087.10   10.176  2.74
   4089.84   10.186  2.74
   4092.58   10.209  2.74
   4095.32   10.259  2.74
   4098.06   10.367  2.74
   4100.80   10.542  2.74
   4103.54   10.515  2.74
   4106.28   10.360  2.74
   4109.02   10.261  2.74
   4111.76   10.199  2.74
   4114.50   10.176  2.74
   4117.24   10.157  2.74
   4119.98   10.154  2.74
   4122.72   10.147  2.74
   4125.46   10.139  2.74
   4128.20   10.131  2.74
   4130.94   10.144  2.74
   4133.68   10.150  2.74
   4136.42   10.131  2.74
   4139.16   10.115  2.74
   4141.90   10.121  2.74
   4144.64   10.136  2.74
   4147.38   10.119  2.74
   4150.12   10.117  2.74
   4152.86   10.124  2.74
   4155.60   10.124  2.74
   4158.34   10.113  2.74
   4161.08   10.102  2.74
   4163.82   10.096  2.74
   4166.56   10.106  2.74
   4169.30   10.110  2.74
   4172.04   10.123  2.74
   4174.78   10.123  2.74
   4177.52   10.121  2.74
   4180.26   10.109  2.74
   4183.00   10.108  2.74
   4185.74   10.117  2.74
   4188.48   10.113  2.74
   4191.22   10.106  2.74
   4193.96   10.098  2.74
   4196.70   10.109  2.74
   4199.44   10.116  2.74
   4202.18   10.104  2.74
   4204.92   10.096  2.74
   4207.66   10.092  2.74
   4210.40   10.095  2.74
   4213.14   10.094  2.74
   4215.88   10.111  2.74
   4218.62   10.102  2.74
   4221.36   10.102  2.74
   4224.10   10.126  2.74
   4226.84   10.145  2.74
   4229.58   10.099  2.74
   4232.32   10.089  2.74
   4235.06   10.100  2.74
   4237.80   10.098  2.74
   4240.54   10.080  2.74
   4243.28   10.086  2.74
   4246.02   10.078  2.74
   4248.76   10.101  2.74
   4251.50   10.101  2.74
   4254.24   10.087  2.74
   4256.98   10.079  2.74
   4259.72   10.087  2.74
   4262.46   10.080  2.74
   4265.20   10.065  2.74
   4267.94   10.078  2.74
   4270.68   10.095  2.74
   4273.42   10.089  2.74
   4276.16   10.076  2.74
   4278.90   10.071  2.74
   4281.64   10.079  2.74
   4284.38   10.083  2.74
   4287.12   10.098  2.74
   4289.86   10.114  2.74
   4292.60   10.106  2.74
   4295.34   10.108  2.74
   4298.08   10.132  2.74
   4300.82   10.162  2.74
   4303.56   10.158  2.74
   4306.30   10.146  2.74
   4309.04   10.134  2.74
   4311.78   10.124  2.74
   4314.52   10.108  2.74
   4317.26   10.085  2.74
   4320.00   10.081  2.74
   4322.74   10.104  2.74
   4325.48   10.113  2.74
   4328.22   10.104  2.74
   4330.96   10.121  2.74
   4333.70   10.162  2.74
   4336.44   10.263  2.74
   4339.18   10.432  2.74
   4341.92   10.413  2.74
   4344.66   10.254  2.74
   4347.40   10.150  2.74
   4350.14   10.129  2.74
   4352.88   10.103  2.74
   4355.62   10.069  2.74
   4358.36   10.054  2.74
   4361.10   10.047  2.74
   4363.84   10.034  2.74
   4366.58   10.039  2.74
   4369.32   10.047  2.74
   4372.06   10.048  2.74
   4374.80   10.051  2.74
   4377.54   10.020  2.74
   4380.28   10.023  2.74
   4383.02   10.051  2.74
   4385.76   10.041  2.74
   4388.50   10.022  2.74
   4391.24   10.025  2.74
   4393.98   10.034  2.74
   4396.72   10.028  2.74
   4399.46   10.029  2.74
   4402.20   10.032  2.74
   4404.94   10.024  2.74
   4407.68   10.019  2.74
   4410.42    9.990  2.74
   4413.16   10.003  2.74
   4415.90   10.022  2.74
   4418.64   10.011  2.74
   4421.38   10.001  2.74
   4424.12   10.007  2.74
   4426.86   10.008  2.74
   4429.60   10.003  2.74
   4432.34    9.989  2.74
   4435.08    9.997  2.74
   4437.82    9.998  2.74
   4440.56    9.998  2.74
   4443.30   10.006  2.74
   4446.04   10.001  2.74
   4448.78    9.995  2.74
   4451.52    9.998  2.74
   4454.26   10.012  2.74
   4457.00   10.011  2.74
   4459.74    9.992  2.74
   4462.48    9.997  2.74
   4465.22   10.004  2.74
   4467.96   10.006  2.74
   4470.70    9.987  2.74
   4473.44    9.985  2.74
   4476.18    9.985  2.74
   4478.92    9.985  2.74
   4481.66    9.994  2.74
   4484.40    9.982  2.74
   4487.14    9.976  2.74
   4489.88    9.985  2.74
   4492.62    9.981  2.74
   4495.36    9.987  2.74
   4498.10    9.989  2.74
   4500.84    9.984  2.74
   4503.58    9.976  2.74
   4506.32    9.971  2.74
   4509.06    9.969  2.74
   4511.80    9.961  2.74
   4514.54    9.970  2.74
   4517.28    9.970  2.74
   4520.02    9.971  2.74
   4522.76    9.990  2.74
   4525.50    9.990  2.74
   4528.24    9.996  2.74
   4530.98   10.000  2.74
   4533.72   10.003  2.74
   4536.46    9.992  2.74
   4539.20    9.970  2.74
   4541.94    9.964  2.74
   4544.68    9.963  2.74
   4547.42    9.981  2.74
   4550.16    9.987  2.74
   4552.90    9.982  2.74
   4555.64    9.977  2.74
   4558.38    9.963  2.74
   4561.12    9.955  2.74
   4563.86    9.961  2.74
   4566.60    9.957  2.74
   4569.34    9.962  2.74
   4572.08    9.967  2.74
   4574.82    9.961  2.74
   4577.56    9.951  2.74
   4580.30    9.950  2.74
   4583.04    9.963  2.74
   4585.78    9.956  2.74
   4588.52    9.954  2.74
   4591.26    9.950  2.74
   4594.00    9.940  2.74
   4596.74    9.952  2.74
   4599.48    9.956  2.74
   4602.22    9.946  2.74
   4604.96    9.938  2.74
   4607.70    9.941  2.74
   4610.44    9.941  2.74
   4613.18    9.936  2.74
   4615.92    9.938  2.74
   4618.66    9.932  2.74
   4621.40    9.927  2.74
   4624.14    9.931  2.74
   4626.88    9.931  2.74
   4629.62    9.928  2.74
   4632.36    9.927  2.74
   4635.10    9.926  2.74
   4637.84    9.929  2.74
   4640.58    9.922  2.74
   4643.32    9.922  2.74
   4646.06    9.932  2.74
   4648.80    9.926  2.74
   4651.54    9.929  2.74
   4654.28    9.930  2.74
   4657.02    9.925  2.74
   4659.76    9.918  2.74
   4662.50    9.922  2.74
   4665.24    9.925  2.74
   4667.98    9.922  2.74
   4670.72    9.925  2.74
   4673.46    9.924  2.74
   4676.20    9.926  2.74
   4678.94    9.924  2.74
   4681.68    9.915  2.74
   4684.42    9.917  2.74
   4687.16    9.921  2.74
   4689.90    9.917  2.74
   4692.64    9.915  2.74
   4695.38    9.916  2.74
   4698.12    9.918  2.74
   4700.86    9.926  2.74
   4703.60    9.926  2.74
   4706.34    9.920  2.74
   4709.08    9.911  2.74
   4711.82    9.899  2.74
   4714.56    9.902  2.74
   4717.30    9.907  2.74
   4720.04    9.902  2.74
   4722.78    9.902  2.74
   4725.52    9.904  2.74
   4728.26    9.897  2.74
   4731.00    9.898  2.74
   4733.74    9.909  2.74
   4736.48    9.909  2.74
   4739.22    9.893  2.74
   4741.96    9.882  2.74
   4744.70    9.894  2.74
   4747.44    9.902  2.74
   4750.18    9.902  2.74
   4752.92    9.901  2.74
   4755.66    9.894  2.74
   4758.40    9.899  2.74
   4761.14    9.915  2.74
   4763.88    9.909  2.74
   4766.62    9.897  2.74
   4769.36    9.898  2.74
   4772.10    9.898  2.74
   4774.84    9.900  2.74
   4777.58    9.898  2.74
   4780.32    9.887  2.74
   4783.06    9.889  2.74
   4785.80    9.890  2.74
   4788.54    9.890  2.74
   4791.28    9.891  2.74
   4794.02    9.887  2.74
   4796.76    9.894  2.74
   4799.50    9.888  2.74
   4802.24    9.888  2.74
   4804.98    9.903  2.74
   4807.72    9.896  2.74
   4810.46    9.886  2.74
   4813.20    9.889  2.74
   4815.94    9.888  2.74
   4818.68    9.890  2.74
   4821.42    9.885  2.74
   4824.16    9.886  2.74
   4826.90    9.887  2.74
   4829.64    9.891  2.74
   4832.38    9.886  2.74
   4835.12    9.888  2.74
   4837.86    9.902  2.74
   4840.60    9.899  2.74
   4843.34    9.901  2.74
   4846.08    9.913  2.74
   4848.82    9.931  2.74
   4851.56    9.954  2.74
   4854.30    9.984  2.74
   4857.04   10.082  2.74
   4859.78   10.231  2.74
   4862.52   10.239  2.74
   4865.26   10.091  2.74
   4868.00   10.003  2.74
   4870.74    9.966  2.74
   4873.48    9.938  2.74
   4876.22    9.915  2.74
   4878.96    9.905  2.74
   4881.70    9.895  2.74
   4884.44    9.889  2.74
   4887.18    9.895  2.74
   4889.92    9.899  2.74
   4892.66    9.888  2.74
   4895.40    9.880  2.74
   4898.14    9.875  2.74
   4900.88    9.869  2.74
   4903.62    9.872  2.74
   4906.36    9.867  2.74
   4909.10    9.865  2.74
   4911.84    9.864  2.74
   4914.58    9.867  2.74
   4917.32    9.869  2.74
   4920.06    9.883  2.74
   4922.80    9.887  2.74
   4925.54    9.869  2.74
   4928.28    9.858  2.74
   4931.02    9.861  2.74
   4933.76    9.871  2.74
   4936.50    9.868  2.74
   4939.24    9.861  2.74
   4941.98    9.852  2.74
   4944.72    9.844  2.74
   4947.46    9.851  2.74
   4950.20    9.841  2.74
   4952.94    9.847  2.74
   4955.68    9.871  2.74
   4958.42    9.873  2.74
   4961.16    9.853  2.74
   4963.90    9.857  2.74
   4966.64    9.842  2.74
   4969.38    9.822  2.74
   4972.12    9.841  2.74
   4974.86    9.849  2.74
   4977.60    9.852  2.74
   4980.34    9.860  2.74
   4983.08    9.867  2.74
   4985.82    9.853  2.74
   4988.56    9.846  2.74
   4991.30    9.854  2.74
   4994.04    9.857  2.74
   4996.78    9.854  2.74
   4999.52    9.855  2.74
   5002.26    9.863  2.74
   5005.00    9.859  2.74
   5007.74    9.861  2.74
   5010.48    9.857  2.74
   5013.22    9.868  2.74
   5015.96    9.869  2.74
   5018.70    9.858  2.74
   5021.44    9.852  2.74
   5024.18    9.842  2.74
   5026.92    9.850  2.74
   5029.66    9.849  2.74
   5032.40    9.845  2.74
   5035.14    9.849  2.74
   5037.88    9.853  2.74
   5040.62    9.855  2.74
   5043.36    9.854  2.74
   5046.10    9.846  2.74
   5048.84    9.836  2.74
   5051.58    9.841  2.74
   5054.32    9.833  2.74
   5057.06    9.820  2.74
   5059.80    9.824  2.74
   5062.54    9.830  2.74
   5065.28    9.837  2.74
   5068.02    9.834  2.74
   5070.76    9.840  2.74
   5073.50    9.842  2.74
   5076.24    9.832  2.74
   5078.98    9.843  2.74
   5081.72    9.845  2.74
   5084.46    9.829  2.74
   5087.20    9.836  2.74
   5089.94    9.828  2.74
   5092.68    9.825  2.74
   5095.42    9.832  2.74
   5098.16    9.837  2.74
   5100.90    9.842  2.74
   5103.64    9.825  2.74
   5106.38    9.812  2.74
   5109.12    9.840  2.74
   5111.86    9.835  2.74
   5114.60    9.834  2.74
   5117.34    9.825  2.74
   5120.08    9.819  2.74
   5122.82    9.824  2.74
   5125.56    9.834  2.74
   5128.30    9.835  2.74
   5131.04    9.837  2.74
   5133.78    9.826  2.74
   5136.52    9.838  2.74
   5139.26    9.837  2.74
   5142.00    9.838  2.74
   5144.74    9.827  2.74
   5147.48    9.818  2.74
   5150.22    9.823  2.74
   5152.96    9.831  2.74
   5155.70    9.820  2.74
   5158.44    9.817  2.74
   5161.18    9.819  2.74
   5163.92    9.842  2.74
   5166.66    9.873  2.74
   5169.40    9.897  2.74
   5172.14    9.881  2.74
   5174.88    9.851  2.74
   5177.62    9.817  2.74
   5180.36    9.825  2.74
   5183.10    9.858  2.74
   5185.84    9.861  2.74
   5188.58    9.827  2.74
   5191.32    9.830  2.74
   5194.06    9.826  2.74
   5196.80    9.820  2.74
   5199.54    9.818  2.74
   5202.28    9.819  2.74
   5205.02    9.829  2.74
   5207.76    9.829  2.74
   5210.50    9.819  2.74
   5213.24    9.814  2.74
   5215.98    9.810  2.74
   5218.72    9.810  2.74
   5221.46    9.803  2.74
   5224.20    9.813  2.74
   5226.94    9.826  2.74
   5229.68    9.820  2.74
   5232.42    9.812  2.74
   5235.16    9.820  2.74
   5237.90    9.813  2.74
   5240.64    9.798  2.74
   5243.38    9.798  2.74
   5246.12    9.795  2.74
   5248.86    9.801  2.74
   5251.60    9.811  2.74
   5254.34    9.799  2.74
   5257.08    9.800  2.74
   5259.82    9.802  2.74
   5262.56    9.814  2.74
   5265.30    9.825  2.74
   5268.04    9.832  2.74
   5270.78    9.835  2.74
   5273.52    9.811  2.74
   5276.26    9.797  2.74
   5279.00    9.799  2.74
   5281.74    9.801  2.74
   5284.48    9.798  2.74
   5287.22    9.783  2.74
   5289.96    9.788  2.74
   5292.70    9.793  2.74
   5295.44    9.789  2.74
   5298.18    9.787  2.74
   5300.92    9.790  2.74
   5303.66    9.797  2.74
   5306.40    9.782  2.74
   5309.14    9.788  2.74
   5311.88    9.780  2.74
   5314.62    9.794  2.74
   5317.36    9.800  2.74
   5320.10    9.792  2.74
   5322.84    9.792  2.74
   5325.58    9.800  2.74
   5328.32    9.810  2.74
   5331.06    9.802  2.74
   5333.80    9.791  2.74
   5336.54    9.789  2.74
   5339.28    9.793  2.74
   5342.02    9.787  2.74
   5344.76    9.785  2.74
   5347.50    9.786  2.74
   5350.24    9.790  2.74
   5352.98    9.782  2.74
   5355.72    9.780  2.74
   5358.46    9.779  2.74
   5361.20    9.775  2.74
   5363.94    9.803  2.74
   5366.68    9.798  2.74
   5369.42    9.791  2.74
   5372.16    9.791  2.74
   5374.90    9.776  2.74
   5377.64    9.781  2.74
   5380.38    9.781  2.74
   5383.12    9.775  2.74
   5385.86    9.778  2.74
   5388.60    9.784  2.74
   5391.34    9.780  2.74
   5394.08    9.777  2.74
   5396.82    9.794  2.74
   5399.56    9.809  2.74
   5402.30    9.785  2.74
   5405.04    9.800  2.74
   5407.78    9.801  2.74
   5410.52    9.786  2.74
   5413.26    9.782  2.74
   5416.00    9.776  2.74
   5418.74    9.781  2.74
   5421.48    9.771  2.74
   5424.22    9.778  2.74
   5426.96    9.782  2.74
   5429.70    9.792  2.74
   5432.44    9.793  2.74
   5435.18    9.781  2.74
   5437.92    9.774  2.74
   5440.66    9.774  2.74
   5443.40    9.788  2.74
   5446.14    9.778  2.74
   5448.88    9.773  2.74
   5451.62    9.783  2.74
   5454.36    9.775  2.74
   5457.10    9.786  2.74
   5459.84    9.772  2.74
   5462.58    9.771  2.74
   5465.32    9.766  2.74
   5468.06    9.761  2.74
   5470.80    9.769  2.74
   5473.54    9.770  2.74
   5476.28    9.771  2.74
   5479.02    9.766  2.74
   5481.76    9.762  2.74
   5484.50    9.755  2.74
   5487.24    9.763  2.74
   5489.98    9.757  2.74
   5492.72    9.761  2.74
   5495.46    9.757  2.74
   5498.20    9.745  2.74
   5500.94    9.761  2.74
   5503.68    9.760  2.74
   5506.42    9.764  2.74
   5509.16    9.761  2.74
   5511.90    9.763  2.74
   5514.64    9.761  2.74
   5517.38    9.770  2.74
   5520.12    9.775  2.74
   5522.86    9.769  2.74
   5525.60    9.763  2.74
   5528.34    9.777  2.74
   5531.08    9.772  2.74
   5533.82    9.764  2.74
   5536.56    9.755  2.74
   5539.30    9.748  2.74
   5542.04    9.749  2.74
   5544.78    9.755  2.74
   5547.52    9.753  2.74
   5550.26    9.760  2.74
   5553.00    9.756  2.74
   5555.74    9.758  2.74
   5558.48    9.752  2.74
   5561.22    9.755  2.74
   5563.96    9.762  2.74
   5566.70    9.757  2.74
   5569.44    9.757  2.74
   5572.18    9.762  2.74
   5574.92    9.760  2.74
   5577.66    9.754  2.74
   5580.40    9.754  2.74
   5583.14    9.758  2.74
   5585.88    9.757  2.74
   5588.62    9.762  2.74
   5591.36    9.756  2.74
   5594.10    9.753  2.74
   5596.84    9.750  2.74
   5599.58    9.755  2.74
   5602.32    9.742  2.74
   5605.06    9.740  2.74
   5607.80    9.728  2.74
   5610.54    9.738  2.74
   5613.28    9.744  2.74
   5616.02    9.745  2.74
   5618.76    9.745  2.74
   5621.50    9.733  2.74
   5624.24    9.734  2.74
   5626.98    9.736  2.74
   5629.72    9.730  2.74
   5632.46    9.727  2.74
   5635.20    9.727  2.74
   5637.94    9.737  2.74
   5640.68    9.737  2.74
   5643.42    9.734  2.74
   5646.16    9.731  2.74
   5648.90    9.733  2.74
   5651.64    9.707  2.74
   5654.38    9.719  2.74
   5657.12    9.748  2.74
   5659.86    9.762  2.74
   5662.60    9.765  2.74
   5665.34    9.750  2.74
   5668.08    9.742  2.74
   5670.82    9.741  2.74
   5673.56    9.748  2.74
   5676.30    9.761  2.74
   5679.04    9.749  2.74
   5681.78    9.735  2.74
   5684.52    9.743  2.74
   5687.26    9.749  2.74
   5690.00    9.745  2.74
   5692.74    9.746  2.74
   5695.48    9.750  2.74
   5698.22    9.753  2.74
   5700.96    9.754  2.74
   5703.70    9.749  2.74
   5706.44    9.744  2.74
   5709.18    9.744  2.74
   5711.92    9.742  2.74
   5714.66    9.734  2.74
   5717.40    9.729  2.74
   5720.14    9.726  2.74
   5722.88    9.723  2.74
   5725.62    9.723  2.74
   5728.36    9.733  2.74
   5731.10    9.738  2.74
   5733.84    9.727  2.74
   5736.58    9.726  2.74
   5739.32    9.736  2.74
   5742.06    9.731  2.74
   5744.80    9.722  2.74
   5747.54    9.713  2.74
   5750.28    9.710  2.74
   5753.02    9.724  2.74
   5755.76    9.734  2.74
   5758.50    9.738  2.74
   5761.24    9.734  2.74
   5763.98    9.722  2.74
   5766.72    9.726  2.74
   5769.46    9.734  2.74
   5772.20    9.727  2.74
   5774.94    9.720  2.74
   5777.68    9.718  2.74
   5780.42    9.717  2.74
   5783.16    9.716  2.74
   5785.90    9.714  2.74
   5788.64    9.714  2.74
   5791.38    9.722  2.74
   5794.12    9.730  2.74
   5796.86    9.736  2.74
   5799.60    9.726  2.74
   5802.34    9.685  2.74
   5805.08    9.685  2.74
   5807.82    9.715  2.74
   5810.56    9.726  2.74
   5813.30    9.730  2.74
   5816.04    9.728  2.74
   5818.78    9.725  2.74
   5821.52    9.721  2.74
   5824.26    9.724  2.74
   5827.00    9.737  2.74
   5829.74    9.731  2.74
   5832.48    9.716  2.74
   5835.22    9.705  2.74
   5837.96    9.701  2.74
   5840.70    9.714  2.74
   5843.44    9.723  2.74
   5846.18    9.721  2.74
   5848.92    9.726  2.74
   5851.66    9.738  2.74
   5854.40    9.737  2.74
   5857.14    9.729  2.74
   5859.88    9.712  2.74
   5862.62    9.702  2.74
   5865.36    9.723  2.74
   5868.10    9.717  2.74
   5870.84    9.666  2.74
   5873.58    9.677  2.74
   5876.32    9.719  2.74
   5879.06    9.727  2.74
   5881.80    9.726  2.74
   5884.54    9.722  2.74
   5887.28    9.724  2.74
   5890.02    9.743  2.74
   5892.76    9.742  2.74
   5895.50    9.721  2.74
   5898.24    9.714  2.74
   5900.98    9.710  2.74
   5903.72    9.705  2.74
   5906.46    9.704  2.74
   5909.20    9.713  2.74
   5911.94    9.718  2.74
   5914.68    9.720  2.74
   5917.42    9.708  2.74
   5920.16    9.690  2.74
   5922.90    9.699  2.74
   5925.64    9.714  2.74
   5928.38    9.716  2.74
   5931.12    9.714  2.74
   5933.86    9.707  2.74
   5936.60    9.705  2.74
   5939.34    9.707  2.74
   5942.08    9.711  2.74
   5944.82    9.715  2.74
   5947.56    9.704  2.74
   5950.30    9.694  2.74
   5953.04    9.697  2.74
   5955.78    9.701  2.74
   5958.52    9.710  2.74
   5961.26    9.707  2.74
   5964.00    9.699  2.74
   5966.74    9.709  2.74
   5969.48    9.723  2.74
   5972.22    9.728  2.74
   5974.96    9.721  2.74
   5977.70    9.687  2.74
   5980.44    9.682  2.74
   5983.18    9.710  2.74
   5985.92    9.712  2.74
   5988.66    9.704  2.74
   5991.40    9.705  2.74
   5994.14    9.703  2.74
   5996.88    9.683  2.74
   5999.62    9.677  2.74
   6002.36    9.692  2.74
   6005.10    9.706  2.74
   6007.84    9.721  2.74
   6010.58    9.718  2.74
   6013.32    9.708  2.74
   6016.06    9.700  2.74
   6018.80    9.695  2.74
   6021.54    9.694  2.74
   6024.28    9.697  2.74
   6027.02    9.706  2.74
   6029.76    9.702  2.74
   6032.50    9.691  2.74
   6035.24    9.685  2.74
   6037.98    9.682  2.74
   6040.72    9.684  2.74
   6043.46    9.689  2.74
   6046.20    9.704  2.74
   6048.94    9.704  2.74
   6051.68    9.694  2.74
   6054.42    9.692  2.74
   6057.16    9.693  2.74
   6059.90    9.692  2.74
   6062.64    9.703  2.74
   6065.38    9.755  2.74
   6068.12    9.762  2.74
   6070.86    9.715  2.74
   6073.60    9.700  2.74
   6076.34    9.695  2.74
   6079.08    9.686  2.74
   6081.82    9.682  2.74
   6084.56    9.690  2.74
   6087.30    9.694  2.74
   6090.04    9.690  2.74
   6092.78    9.684  2.74
   6095.52    9.673  2.74
   6098.26    9.677  2.74
   6101.00    9.684  2.74
   6103.74    9.677  2.74
   6106.48    9.672  2.74
   6109.22    9.680  2.74
   6111.96    9.686  2.74
   6114.70    9.691  2.74
   6117.44    9.696  2.74
   6120.18    9.700  2.74
   6122.92    9.699  2.74
   6125.66    9.696  2.74
   6128.40    9.695  2.74
   6131.14    9.698  2.74
   6133.88    9.712  2.74
   6136.62    9.709  2.74
   6139.36    9.693  2.74
   6142.10    9.688  2.74
   6144.84    9.686  2.74
   6147.58    9.680  2.74
   6150.32    9.676  2.74
   6153.06    9.680  2.74
   6155.80    9.682  2.74
   6158.54    9.682  2.74
   6161.28    9.691  2.74
   6164.02    9.705  2.74
   6166.76    9.699  2.74
   6169.50    9.689  2.74
   6172.24    9.684  2.74
   6174.98    9.686  2.74
   6177.72    9.702  2.74
   6180.46    9.701  2.74
   6183.20    9.683  2.74
   6185.94    9.683  2.74
   6188.68    9.687  2.74
   6191.42    9.675  2.74
   6194.16    9.668  2.74
   6196.90    9.685  2.74
   6199.64    9.693  2.74
   6202.38    9.692  2.74
   6205.12    9.673  2.74
   6207.86    9.643  2.74
   6210.60    9.661  2.74
   6213.34    9.688  2.74
   6216.08    9.675  2.74
   6218.82    9.668  2.74
   6221.56    9.680  2.74
   6224.30    9.688  2.74
   6227.04    9.695  2.74
   6229.78    9.694  2.74
   6232.52    9.689  2.74
   6235.26    9.676  2.74
   6238.00    9.669  2.74
   6240.74    9.686  2.74
   6243.48    9.695  2.74
   6246.22    9.689  2.74
   6248.96    9.688  2.74
   6251.70    9.688  2.74
   6254.44    9.686  2.74
   6257.18    9.682  2.74
   6259.92    9.672  2.74
   6262.66    9.666  2.74
   6265.40    9.670  2.74
   6268.14    9.669  2.74
   6270.88    9.666  2.74
   6273.62    9.662  2.74
   6276.36    9.658  2.74
   6279.10    9.655  2.74
   6281.84    9.655  2.74
   6284.58    9.659  2.74
   6287.32    9.664  2.74
   6290.06    9.666  2.74
   6292.80    9.674  2.74
   6295.54    9.687  2.74
   6298.28    9.682  2.74
   6301.02    9.673  2.74
   6303.76    9.679  2.74
   6306.50    9.685  2.74
   6309.24    9.681  2.74
   6311.98    9.683  2.74
   6314.72    9.694  2.74
   6317.46    9.686  2.74
   6320.20    9.669  2.74
   6322.94    9.671  2.74
   6325.68    9.677  2.74
   6328.42    9.680  2.74
   6331.16    9.684  2.74
   6333.90    9.692  2.74
   6336.64    9.688  2.74
   6339.38    9.675  2.74
   6342.12    9.675  2.74
   6344.86    9.679  2.74
   6347.60    9.676  2.74
   6350.34    9.674  2.74
   6353.08    9.677  2.74
   6355.82    9.673  2.74
   6358.56    9.657  2.74
   6361.30    9.663  2.74
   6364.04    9.680  2.74
   6366.78    9.676  2.74
   6369.52    9.667  2.74
   6372.26    9.659  2.74
   6375.00    9.660  2.74
   6377.74    9.677  2.74
   6380.48    9.679  2.74
   6383.22    9.669  2.74
   6385.96    9.668  2.74
   6388.70    9.670  2.74
   6391.44    9.674  2.74
   6394.18    9.675  2.74
   6396.92    9.667  2.74
   6399.66    9.661  2.74
   6402.40    9.655  2.74
   6405.14    9.658  2.74
   6407.88    9.667  2.74
   6410.62    9.662  2.74
   6413.36    9.656  2.74
   6416.10    9.662  2.74
   6418.84    9.667  2.74
   6421.58    9.669  2.74
   6424.32    9.668  2.74
   6427.06    9.662  2.74
   6429.80    9.661  2.74
   6432.54    9.659  2.74
   6435.28    9.629  2.74
   6438.02    9.613  2.74
   6440.76    9.654  2.74
   6443.50    9.675  2.74
   6446.24    9.661  2.74
   6448.98    9.660  2.74
   6451.72    9.663  2.74
   6454.46    9.664  2.74
   6457.20    9.664  2.74
   6459.94    9.664  2.74
   6462.68    9.660  2.74
   6465.42    9.652  2.74
   6468.16    9.647  2.74
   6470.90    9.645  2.74
   6473.64    9.644  2.74
   6476.38    9.643  2.74
   6479.12    9.649  2.74
   6481.86    9.657  2.74
   6484.60    9.666  2.74
   6487.34    9.672  2.74
   6490.08    9.674  2.74
   6492.82    9.673  2.74
   6495.56    9.669  2.74
   6498.30    9.662  2.74
   6501.04    9.654  2.74
   6503.78    9.646  2.74
   6506.52    9.645  2.74
   6509.26    9.660  2.74
   6512.00    9.666  2.74
   6514.74    9.663  2.74
   6517.48    9.659  2.74
   6520.22    9.654  2.74
   6522.96    9.659  2.74
   6525.70    9.663  2.74
   6528.44    9.659  2.74
   6531.18    9.656  2.74
   6533.92    9.656  2.74
   6536.66    9.654  2.74
   6539.40    9.651  2.74
   6542.14    9.659  2.74
   6544.88    9.673  2.74
   6547.62    9.692  2.74
   6550.36    9.716  2.74
   6553.10    9.742  2.74
   6555.84    9.782  2.74
   6558.58    9.843  2.74
   6561.32    9.891  2.74
   6564.06    9.920  2.74
   6566.80    9.849  2.74
   6569.54    9.763  2.74
   6572.28    9.715  2.74
   6575.02    9.687  2.74
   6577.76    9.686  2.74
   6580.50    9.677  2.74
   6583.24    9.664  2.74
   6585.98    9.653  2.74
   6588.72    9.647  2.74
   6591.46    9.655  2.74
   6594.20    9.660  2.74
   6596.94    9.647  2.74
   6599.68    9.640  2.74
   6602.42    9.640  2.74
   6605.16    9.638  2.74
   6607.90    9.637  2.74
   6610.64    9.642  2.74
   6613.38    9.647  2.74
   6616.12    9.650  2.74
   6618.86    9.648  2.74
   6621.60    9.636  2.74
   6624.34    9.638  2.74
   6627.08    9.654  2.74
   6629.82    9.640  2.74
   6632.56    9.619  2.74
   6635.30    9.625  2.74
   6638.04    9.630  2.74
   6640.78    9.618  2.74
   6643.52    9.616  2.74
   6646.26    9.630  2.74
   6649.00    9.638  2.74
   6651.74    9.643  2.74
   6654.48    9.632  2.74
   6657.22    9.621  2.74
   6659.96    9.631  2.74
   6662.70    9.641  2.74
   6665.44    9.650  2.74
   6668.18    9.643  2.74
   6670.92    9.617  2.74
   6673.66    9.627  2.74
   6676.40    9.648  2.74
   6679.14    9.648  2.74
   6681.88    9.642  2.74
   6684.62    9.631  2.74
   6687.36    9.627  2.74
   6690.10    9.637  2.74
   6692.84    9.629  2.74
   6695.58    9.612  2.74
   6698.32    9.628  2.74
   6701.06    9.650  2.74
   6703.80    9.643  2.74
   6706.54    9.636  2.74
   6709.28    9.634  2.74
   6712.02    9.641  2.74
   6714.76    9.661  2.74
   6717.50    9.657  2.74
   6720.24    9.642  2.74
   6722.98    9.632  2.74
   6725.72    9.625  2.74
   6728.46    9.625  2.74
   6731.20    9.621  2.74
   6733.94    9.608  2.74
   6736.68    9.617  2.74
   6739.42    9.642  2.74
   6742.16    9.637  2.74
   6744.90    9.626  2.74
   6747.64    9.638  2.74
   6750.38    9.644  2.74
   6753.12    9.634  2.74
   6755.86    9.626  2.74
   6758.60    9.621  2.74
   6761.34    9.617  2.74
   6764.08    9.617  2.74
   6766.82    9.630  2.74
   6769.56    9.645  2.74
   6772.30    9.655  2.74
   6775.04    9.654  2.74
   6777.78    9.630  2.74
   6780.52    9.630  2.74
   6783.26    9.643  2.74
   6786.00    9.642  2.74
   6788.74    9.639  2.74
   6791.48    9.650  2.74
   6794.22    9.655  2.74
   6796.96    9.639  2.74
   6799.70    9.631  2.74
   6802.44    9.632  2.74
   6805.18    9.622  2.74
   6807.92    9.609  2.74
   6810.66    9.618  2.74
   6813.40    9.628  2.74
   6816.14    9.626  2.74
   6818.88    9.623  2.74
   6821.62    9.620  2.74
   6824.36    9.620  2.74
   6827.10    9.624  2.74
   6829.84    9.633  2.74
   6832.58    9.640  2.74
   6835.32    9.632  2.74
   6838.06    9.626  2.74
   6840.80    9.634  2.74
   6843.54    9.637  2.74
   6846.28    9.632  2.74
   6849.02    9.627  2.74
   6851.76    9.622  2.74
   6854.50    9.636  2.74
   6857.24    9.650  2.74
   6859.98    9.643  2.74
   6862.72    9.636  2.74
   6865.46    9.637  2.74
   6868.20    9.631  2.74
   6870.94    9.621  2.74
   6873.68    9.623  2.74
   6876.42    9.628  2.74
   6879.16    9.618  2.74
   6881.90    9.612  2.74
   6884.64    9.622  2.74
   6887.38    9.629  2.74
   6890.12    9.636  2.74
   6892.86    9.616  2.74
   6895.60    9.584  2.74
   6898.34    9.605  2.74
   6901.08    9.635  2.74
   6903.82    9.630  2.74
   6906.56    9.625  2.74
   6909.30    9.629  2.74
   6912.04    9.630  2.74
   6914.78    9.630  2.74
   6917.52    9.624  2.74
   6920.26    9.617  2.74
   6923.00    9.620  2.74
   6925.74    9.625  2.74
   6928.48    9.630  2.74
   6931.22    9.625  2.74
   6933.96    9.601  2.74
   6936.70    9.606  2.74
   6939.44    9.627  2.74
   6942.18    9.634  2.74
   6944.92    9.636  2.74
   6947.66    9.631  2.74
   6950.40    9.626  2.74
   6953.14    9.621  2.74
   6955.88    9.620  2.74
   6958.62    9.625  2.74
   6961.36    9.613  2.74
   6964.10    9.598  2.74
   6966.84    9.607  2.74
   6969.58    9.620  2.74
   6972.32    9.633  2.74
   6975.06    9.639  2.74
   6977.80    9.637  2.74
   6980.54    9.630  2.74
   6983.28    9.619  2.74
   6986.02    9.616  2.74
   6988.76    9.615  2.74
   6991.50    9.611  2.74
   6994.24    9.610  2.74
   6996.98    9.617  2.74
   6999.72    9.619  2.74
   7002.46    9.616  2.74
   7005.20    9.610  2.74
   7007.94    9.603  2.74
   7010.68    9.602  2.74
   7013.42    9.601  2.74
   7016.16    9.593  2.74
   7018.90    9.596  2.74
   7021.64    9.617  2.74
   7024.38    9.625  2.74
   7027.12    9.626  2.74
   7029.86    9.630  2.74
   7032.60    9.631  2.74
   7035.34    9.625  2.74
   7038.08    9.617  2.74
   7040.82    9.609  2.74
   7043.56    9.608  2.74
   7046.30    9.614  2.74
   7049.04    9.613  2.74
   7051.78    9.609  2.74
   7054.52    9.610  2.74
   7057.26    9.609  2.74
   7060.00    9.598  2.74
   7062.74    9.593  2.74
   7065.48    9.598  2.74
   7068.22    9.604  2.74
   7070.96    9.610  2.74
   7073.70    9.614  2.74
   7076.44    9.615  2.74
   7079.18    9.614  2.74
   7081.92    9.613  2.74
   7084.66    9.616  2.74
   7087.40    9.615  2.74
   7090.14    9.610  2.74
   7092.88    9.605  2.74
   7095.62    9.602  2.74
   7098.36    9.617  2.74
   7101.10    9.631  2.74
   7103.84    9.621  2.74
   7106.58    9.613  2.74
   7109.32    9.610  2.74
   7112.06    9.613  2.74
   7114.80    9.621  2.74
   7117.54    9.624  2.74
   7120.28    9.625  2.74
   7123.02    9.623  2.74
   7125.76    9.619  2.74
   7128.50    9.608  2.74
   7131.24    9.609  2.74
   7133.98    9.629  2.74
   7136.72    9.632  2.74
   7139.46    9.626  2.74
   7142.20    9.616  2.74
   7144.94    9.608  2.74
   7147.68    9.617  2.74
   7150.42    9.624  2.74
   7153.16    9.620  2.74
   7155.90    9.619  2.74
   7158.64    9.621  2.74
   7161.38    9.629  2.74
   7164.12    9.634  2.74
   7166.86    9.602  2.74
   7169.60    9.587  2.74
   7172.34    9.646  2.74
   7175.08    9.663  2.74
   7177.82    9.608  2.74
   7180.56    9.599  2.74
   7183.30    9.609  2.74
   7186.04    9.624  2.74
   7188.78    9.629  2.74
   7191.52    9.577  2.74
   7194.26    9.551  2.74
   7197.00    9.586  2.74
   7199.74    9.611  2.74
   7202.48    9.632  2.74
   7205.22    9.629  2.74
   7207.96    9.616  2.74
   7210.70    9.627  2.74
   7213.44    9.637  2.74
   7216.18    9.627  2.74
   7218.92    9.618  2.74
   7221.66    9.612  2.74
   7224.40    9.609  2.74
   7227.14    9.607  2.74
   7229.88    9.606  2.74
   7232.62    9.605  2.74
   7235.36    9.599  2.74
   7238.10    9.595  2.74
   7240.84    9.590  2.74
   7243.58    9.593  2.74
   7246.32    9.603  2.74
   7249.06    9.603  2.74
   7251.80    9.600  2.74
   7254.54    9.606  2.74
   7257.28    9.613  2.74
   7260.02    9.616  2.74
   7262.76    9.614  2.74
   7265.50    9.604  2.74
   7268.24    9.603  2.74
   7270.98    9.607  2.74
   7273.72    9.609  2.74
   7276.46    9.610  2.74
   7279.20    9.605  2.74
   7281.94    9.601  2.74
   7284.68    9.602  2.74
   7287.42    9.601  2.74
   7290.16    9.598  2.74
   7292.90    9.602  2.74
   7295.64    9.611  2.74
   7298.38    9.609  2.74
   7301.12    9.604  2.74
   7303.86    9.594  2.74
   7306.60    9.589  2.74
   7309.34    9.593  2.74
   7312.08    9.600  2.74
   7314.82    9.611  2.74
   7317.56    9.608  2.74
   7320.30    9.601  2.74
   7323.04    9.603  2.74
   7325.78    9.605  2.74
   7328.52    9.604  2.74
   7331.26    9.599  2.74
   7334.00    9.586  2.74
   7336.74    9.586  2.74
   7339.48    9.593  2.74
   7342.22    9.611  2.74
   7344.96    9.627  2.74
   7347.70    9.622  2.74
   7350.44    9.615  2.74
   7353.18    9.605  2.74
   7355.92    9.605  2.74
   7358.66    9.612  2.74
   7361.40    9.601  2.74
   7364.14    9.585  2.74
   7366.88    9.584  2.74
   7369.62    9.587  2.74
   7372.36    9.594  2.74
   7375.10    9.599  2.74
   7377.84    9.599  2.74
   7380.58    9.604  2.74
   7383.32    9.610  2.74
   7386.06    9.595  2.74
   7388.80    9.581  2.74
   7391.54    9.597  2.74
   7394.28    9.607  2.74
   7397.02    9.601  2.74
   7399.76    9.601  2.74
   7402.50    9.606  2.74
   7405.24    9.608  2.74
   7407.98    9.608  2.74
   7410.72    9.595  2.74
   7413.46    9.589  2.74
   7416.20    9.604  2.74
   7418.94    9.610  2.74
   7421.68    9.601  2.74
   7424.42    9.597  2.74
   7427.16    9.595  2.74
   7429.90    9.595  2.74
   7432.64    9.593  2.74
   7435.38    9.585  2.74
   7438.12    9.583  2.74
   7440.86    9.596  2.74
   7443.60    9.599  2.74
   7446.34    9.591  2.74
   7449.08    9.597  2.74
   7451.82    9.608  2.74
   7454.56    9.606  2.74
   7457.30    9.605  2.74
   7460.04    9.617  2.74
   7462.78    9.619  2.74
   7465.52    9.603  2.74
   7468.26    9.601  2.74
   7471.00    9.604  2.74
   7473.74    9.605  2.74
   7476.48    9.604  2.74
   7479.22    9.596  2.74
   7481.96    9.592  2.74
   7484.70    9.600  2.74
   7487.44    9.606  2.74
   7490.18    9.614  2.74
   7492.92    9.605  2.74
   7495.66    9.591  2.74
   7498.40    9.594  2.74
   7501.14    9.600  2.74
   7503.88    9.603  2.74
   7506.62    9.609  2.74
   7509.36    9.623  2.74
   7512.10    9.625  2.74
   7514.84    9.618  2.74
   7517.58    9.613  2.74
   7520.32    9.608  2.74
   7523.06    9.609  2.74
   7525.80    9.606  2.74
   7528.54    9.592  2.74
   7531.28    9.586  2.74
   7534.02    9.585  2.74
   7536.76    9.594  2.74
   7539.50    9.606  2.74
   7542.24    9.606  2.74
   7544.98    9.602  2.74
   7547.72    9.593  2.74
   7550.46    9.586  2.74
   7553.20    9.577  2.74
   7555.94    9.588  2.74
   7558.68    9.614  2.74
   7561.42    9.614  2.74
   7564.16    9.604  2.74
   7566.90    9.596  2.74
   7569.64    9.595  2.74
   7572.38    9.613  2.74
   7575.12    9.614  2.74
   7577.86    9.594  2.74
   7580.60    9.590  2.74
   7583.34    9.594  2.74
   7586.08    9.595  2.74
   7588.82    9.596  2.74
   7591.56    9.599  2.74
   7594.30    9.597  2.74
   7597.04    9.585  2.74
   7599.78    9.586  2.74
   7602.52    9.599  2.74
   7605.26    9.612  2.74
   7608.00    9.620  2.74
   7610.74    9.607  2.74
   7613.48    9.593  2.74
   7616.22    9.586  2.74
   7618.96    9.584  2.74
   7621.70    9.585  2.74
   7624.44    9.590  2.74
   7627.18    9.597  2.74
   7629.92    9.598  2.74
   7632.66    9.597  2.74
   7635.40    9.592  2.74
   7638.14    9.592  2.74
   7640.88    9.602  2.74
   7643.62    9.606  2.74
   7646.36    9.606  2.74
   7649.10    9.613  2.74
   7651.84    9.620  2.74
   7654.58    9.608  2.74
   7657.32    9.596  2.74
   7660.06    9.596  2.74
   7662.80    9.595  2.74
   7665.54    9.594  2.74
   7668.28    9.600  2.74
   7671.02    9.611  2.74
   7673.76    9.608  2.74
   7676.50    9.602  2.74
   7679.24    9.600  2.74
   7681.98    9.598  2.74
   7684.72    9.594  2.74
   7687.46    9.595  2.74
   7690.20    9.598  2.74
   7692.94    9.606  2.74
   7695.68    9.617  2.74
   7698.42    9.625  2.74
   7701.16    9.627  2.74
   7703.90    9.611  2.74
   7706.64    9.605  2.74
   7709.38    9.620  2.74
   7712.12    9.614  2.74
   7714.86    9.597  2.74
   7717.60    9.592  2.74
   7720.34    9.591  2.74
   7723.08    9.590  2.74
   7725.82    9.591  2.74
   7728.56    9.587  2.74
   7731.30    9.618  2.74
   7734.04    9.696  2.74
   7736.78    9.678  2.74
   7739.52    9.618  2.74
   7742.26    9.604  2.74
   7745.00    9.604  2.74
   7747.74    9.620  2.74
   7750.48    9.623  2.74
   7753.22    9.605  2.74
   7755.96    9.595  2.74
   7758.70    9.589  2.74
   7761.44    9.594  2.74
   7764.18    9.600  2.74
   7766.92    9.594  2.74
   7769.66    9.588  2.74
   7772.40    9.584  2.74
   7775.14    9.590  2.74
   7777.88    9.609  2.74
   7780.62    9.608  2.74
   7783.36    9.600  2.74
   7786.10    9.605  2.74
   7788.84    9.609  2.74
   7791.58    9.601  2.74
   7794.32    9.597  2.74
   7797.06    9.600  2.74
   7799.80    9.599  2.74
   7802.54    9.596  2.74
   7805.28    9.611  2.74
   7808.02    9.626  2.74
   7810.76    9.601  2.74
   7813.50    9.581  2.74
   7816.24    9.584  2.74
   7818.98    9.595  2.74
   7821.72    9.621  2.74
   7824.46    9.613  2.74
   7827.20    9.587  2.74
   7829.94    9.578  2.74
   7832.68    9.574  2.74
   7835.42    9.569  2.74
   7838.16    9.578  2.74
   7840.90    9.619  2.74
   7843.64    9.625  2.74
   7846.38    9.605  2.74
   7849.12    9.608  2.74
   7851.86    9.615  2.74
   7854.60    9.614  2.74
   7857.34    9.611  2.74
   7860.08    9.605  2.74
   7862.82    9.601  2.74
   7865.56    9.596  2.74
   7868.30    9.602  2.74
   7871.04    9.617  2.74
   7873.78    9.660  2.74
   7876.52    9.689  2.74
   7879.26    9.633  2.74
   7882.00    9.592  2.74
   7884.74    9.583  2.74
   7887.48    9.584  2.74
   7890.22    9.598  2.74
   7892.96    9.590  2.74
   7895.70    9.577  2.74
   7898.44    9.595  2.74
   7901.18    9.609  2.74
   7903.92    9.590  2.74
   7906.66    9.586  2.74
   7909.40    9.604  2.74
   7912.14    9.603  2.74
   7914.88    9.595  2.74
   7917.62    9.601  2.74
   7920.36    9.610  2.74
   7923.10    9.612  2.74
   7925.84    9.611  2.74
   7928.58    9.607  2.74
   7931.32    9.603  2.74
   7934.06    9.600  2.74
   7936.80    9.591  2.74
   7939.54    9.584  2.74
   7942.28    9.595  2.74
   7945.02    9.609  2.74
   7947.76    9.623  2.74
   7950.50    9.620  2.74
   7953.24    9.587  2.74
   7955.98    9.586  2.74
   7958.72    9.600  2.74
   7961.46    9.577  2.74
   7964.20    9.554  2.74
   7966.94    9.565  2.74
   7969.68    9.580  2.74
   7972.42    9.592  2.74
   7975.16    9.597  2.74
   7977.90    9.596  2.74
   7980.64    9.593  2.74
   7983.38    9.587  2.74
   7986.12    9.582  2.74
   7988.86    9.582  2.74
   7991.60    9.596  2.74
   7994.34    9.603  2.74
   7997.08    9.601  2.74
   7999.82    9.597  2.74
   8002.56    9.591  2.74
   8005.30    9.602  2.74
   8008.04    9.618  2.74
   8010.78    9.627  2.74
   8013.52    9.623  2.74
   8016.26    9.593  2.74
   8019.00    9.587  2.74
   8021.74    9.608  2.74
   8024.48    9.604  2.74
   8027.22    9.590  2.74
   8029.96    9.588  2.74
   8032.70    9.590  2.74
   8035.44    9.596  2.74
   8038.18    9.595  2.74
   8040.92    9.576  2.74
   8043.66    9.586  2.74
   8046.40    9.618  2.74
   8049.14    9.605  2.74
   8051.88    9.580  2.74
   8054.62    9.575  2.74
   8057.36    9.583  2.74
   8060.10    9.621  2.74
   8062.84    9.632  2.74
   8065.58    9.611  2.74
   8068.32    9.597  2.74
   8071.06    9.585  2.74
   8073.80    9.592  2.74
   8076.54    9.600  2.74
   8079.28    9.587  2.74
   8082.02    9.589  2.74
   8084.76    9.624  2.74
   8087.50    9.630  2.74
   8090.24    9.616  2.74
   8092.98    9.616  2.74
   8095.72    9.621  2.74
   8098.46    9.635  2.74
   8101.20    9.640  2.74
   8103.94    9.621  2.74
   8106.68    9.605  2.74
   8109.42    9.590  2.74
   8112.16    9.597  2.74
   8114.90    9.617  2.74
   8117.64    9.618  2.74
   8120.38    9.619  2.74
   8123.12    9.638  2.74
   8125.86    9.643  2.74
   8128.60    9.622  2.74
   8131.34    9.604  2.74
   8134.08    9.585  2.74
   8136.82    9.579  2.74
   8139.56    9.580  2.74
   8142.30    9.581  2.74
   8145.04    9.588  2.74
   8147.78    9.607  2.74
   8150.52    9.617  2.74
   8153.26    9.614  2.74
   8156.00    9.610  2.74
   8158.74    9.602  2.74
   8161.48    9.598  2.74
   8164.22    9.595  2.74
   8166.96    9.596  2.74
   8169.70    9.596  2.74
   8172.44    9.591  2.74
   8175.18    9.591  2.74
   8177.92    9.593  2.74
   8180.66    9.607  2.74
   8183.40    9.622  2.74
   8186.14    9.595  2.74
   8188.88    9.576  2.74
   8191.62    9.612  2.74
   8194.36    9.619  2.74
   8197.10    9.576  2.74
   8199.84    9.579  2.74
   8202.58    9.604  2.74
   8205.32    9.598  2.74
   8208.06    9.587  2.74
   8210.80    9.599  2.74
   8213.54    9.606  2.74
   8216.28    9.597  2.74
   8219.02    9.600  2.74
   8221.76    9.614  2.74
   8224.50    9.612  2.74
   8227.24    9.604  2.74
   8229.98    9.607  2.74
   8232.72    9.608  2.74
   8235.46    9.592  2.74
   8238.20    9.593  2.74
   8240.94    9.625  2.74
   8243.68    9.625  2.74
   8246.42    9.606  2.74
   8249.16    9.590  2.74
   8251.90    9.575  2.74
   8254.64    9.560  2.74
   8257.38    9.560  2.74
   8260.12    9.593  2.74
   8262.86    9.605  2.74
   8265.60    9.594  2.74
   8268.34    9.612  2.74
   8271.08    9.637  2.74
   8273.82    9.607  2.74
   8276.56    9.581  2.74
   8279.30    9.610  2.74
   8282.04    9.623  2.74
   8284.78    9.598  2.74
   8287.52    9.602  2.74
   8290.26    9.622  2.74
   8293.00    9.609  2.74
   8295.74    9.586  2.74
   8298.48    9.578  2.74
   8301.22    9.577  2.74
   8303.96    9.584  2.74
   8306.70    9.587  2.74
   8309.44    9.586  2.74
   8312.18    9.599  2.74
   8314.92    9.618  2.74
   8317.66    9.625  2.74
   8320.40    9.623  2.74
   8323.14    9.609  2.74
   8325.88    9.598  2.74
   8328.62    9.594  2.74
   8331.36    9.583  2.74
   8334.10    9.568  2.74
   8336.84    9.569  2.74
   8339.58    9.580  2.74
   8342.32    9.601  2.74
   8345.06    9.612  2.74
   8347.80    9.589  2.74
   8350.54    9.588  2.74
   8353.28    9.614  2.74
   8356.02    9.625  2.74
   8358.76    9.627  2.74
   8361.50    9.609  2.74
   8364.24    9.597  2.74
   8366.98    9.637  2.74
   8369.72    9.644  2.74
   8372.46    9.573  2.74
   8375.20    9.567  2.74
   8377.94    9.610  2.74
   8380.68    9.615  2.74
   8383.42    9.608  2.74
   8386.16    9.614  2.74
   8388.90    9.618  2.74
   8391.64    9.618  2.74
   8394.38    9.604  2.74
   8397.12    9.568  2.74
   8399.86    9.566  2.74
   8402.60    9.583  2.74
   8405.34    9.597  2.74
   8408.08    9.608  2.74
   8410.82    9.601  2.74
   8413.56    9.598  2.74
   8416.30    9.608  2.74
   8419.04    9.609  2.74
   8421.78    9.604  2.74
   8424.52    9.595  2.74
   8427.26    9.583  2.74
   8430.00    9.572  2.74
   8432.74    9.569  2.74
   8435.48    9.588  2.74
   8438.22    9.595  2.74
   8440.96    9.581  2.74
   8443.70    9.575  2.74
   8446.44    9.572  2.74
   8449.18    9.572  2.74
   8451.92    9.575  2.74
   8454.66    9.577  2.74
   8457.40    9.584  2.74
   8460.14    9.600  2.74
   8462.88    9.607  2.74
   8465.62    9.605  2.74
   8468.36    9.589  2.74
   8471.10    9.573  2.74
   8473.84    9.605  2.74
   8476.58    9.634  2.74
   8479.32    9.619  2.74
   8482.06    9.606  2.74
   8484.80    9.595  2.74
   8487.54    9.602  2.74
   8490.28    9.622  2.74
   8493.02    9.628  2.74
   8495.76    9.629  2.74
   8498.50    9.637  2.74
   8501.24    9.632  2.74
   8503.98    9.595  2.74
   8506.72    9.587  2.74
   8509.46    9.608  2.74
   8512.20    9.604  2.74
   8514.94    9.591  2.74
   8517.68    9.597  2.74
   8520.42    9.601  2.74
   8523.16    9.589  2.74
   8525.90    9.585  2.74
   8528.64    9.589  2.74
   8531.38    9.611  2.74
   8534.12    9.649  2.74
   8536.86    9.654  2.74
   8539.60    9.650  2.74
   8542.34    9.668  2.74
   8545.08    9.669  2.74
   8547.82    9.622  2.74
   8550.56    9.607  2.74
   8553.30    9.627  2.74
   8556.04    9.621  2.74
   8558.78    9.605  2.74
   8561.52    9.590  2.74
   8564.26    9.580  2.74
   8567.00    9.591  2.74
   8569.74    9.596  2.74
   8572.48    9.582  2.74
   8575.22    9.590  2.74
   8577.96    9.615  2.74
   8580.70    9.604  2.74
   8583.44    9.587  2.74
   8586.18    9.607  2.74
   8588.92    9.624  2.74
   8591.66    9.618  2.74
   8594.40    9.608  2.74
   8597.14    9.593  2.74
   8599.88    9.585  2.74
   8602.62    9.581  2.74
   8605.36    9.585  2.74
   8608.10    9.588  2.74
   8610.84    9.575  2.74
   8613.58    9.570  2.74
   8616.32    9.583  2.74
   8619.06    9.578  2.74
   8621.80    9.558  2.74
   8624.54    9.565  2.74
   8627.28    9.580  2.74
   8630.02    9.584  2.74
   8632.76    9.586  2.74
   8635.50    9.593  2.74
   8638.24    9.596  2.74
   8640.98    9.595  2.74
   8643.72    9.603  2.74
   8646.46    9.616  2.74
   8649.20    9.615  2.74
   8651.94    9.617  2.74
   8654.68    9.636  2.74
   8657.42    9.658  2.74
   8660.16    9.694  2.74
   8662.90    9.682  2.74
   8665.64    9.626  2.74
   8668.38    9.602  2.74
   8671.12    9.589  2.74
   8673.86    9.576  2.74
   8676.60    9.573  2.74
   8679.34    9.592  2.74
   8682.08    9.600  2.74
   8684.82    9.588  2.74
   8687.56    9.594  2.74
   8690.30    9.607  2.74
   8693.04    9.594  2.74
   8695.78    9.575  2.74
   8698.52    9.559  2.74
   8701.26    9.560  2.74
   8704.00    9.599  2.74
   8706.74    9.609  2.74
   8709.48    9.593  2.74
   8712.22    9.587  2.74
   8714.96    9.586  2.74
   8717.70    9.592  2.74
   8720.44    9.595  2.74
   8723.18    9.580  2.74
   8725.92    9.571  2.74
   8728.66    9.572  2.74
   8731.40    9.569  2.74
   8734.14    9.564  2.74
   8736.88    9.552  2.74
   8739.62    9.549  2.74
   8742.36    9.588  2.74
   8745.10    9.622  2.74
   8747.84    9.633  2.74
   8750.58    9.636  2.74
   8753.32    9.633  2.74
   8756.06    9.600  2.74
   8758.80    9.561  2.74
   8761.54    9.595  2.74
   8764.28    9.631  2.74
   8767.02    9.612  2.74
   8769.76    9.593  2.74
   8772.50    9.570  2.74
   8775.24    9.578  2.74
   8777.98    9.607  2.74
   8780.72    9.613  2.74
   8783.46    9.609  2.74
   8786.20    9.591  2.74
   8788.94    9.579  2.74
   8791.68    9.581  2.74
   8794.42    9.587  2.74
   8797.16    9.599  2.74
   8799.90    9.598  2.74
   8802.64    9.590  2.74
   8805.38    9.588  2.74
   8808.12    9.593  2.74
   8810.86    9.624  2.74
   8813.60    9.630  2.74
   8816.34    9.587  2.74
   8819.08    9.578  2.74
   8821.82    9.591  2.74
   8824.56    9.595  2.74
   8827.30    9.594  2.74
   8830.04    9.572  2.74
   8832.78    9.560  2.74
   8835.52    9.580  2.74
   8838.26    9.589  2.74
   8841.00    9.586  2.74
   8843.74    9.582  2.74
   8846.48    9.577  2.74
   8849.22    9.590  2.74
   8851.96    9.610  2.74
   8854.70    9.639  2.74
   8857.44    9.648  2.74
   8860.18    9.615  2.74
   8862.92    9.605  2.74
   8865.66    9.608  2.74
   8868.40    9.592  2.74
   8871.14    9.580  2.74
   8873.88    9.621  2.74
   8876.62    9.647  2.74
   8879.36    9.601  2.74
   8882.10    9.581  2.74
   8884.84    9.589  2.74
   8887.58    9.599  2.74
   8890.32    9.611  2.74
   8893.06    9.597  2.74
   8895.80    9.578  2.74
   8898.54    9.575  2.74
   8901.28    9.576  2.74
   8904.02    9.581  2.74
   8906.76    9.584  2.74
   8909.50    9.586  2.74
   8912.24    9.584  2.74
   8914.98    9.582  2.74
   8917.72    9.589  2.74
   8920.46    9.598  2.74
   8923.20    9.604  2.74
   8925.94    9.603  2.74
   8928.68    9.586  2.74
   8931.42    9.601  2.74
   8934.16    9.633  2.74
   8936.90    9.615  2.74
   8939.64    9.582  2.74
   8942.38    9.551  2.74
   8945.12    9.550  2.74
   8947.86    9.629  2.74
   8950.60    9.622  2.74
   8953.34    9.535  2.74
   8956.08    9.526  2.74
   8958.82    9.549  2.74
   8961.56    9.581  2.74
   8964.30    9.609  2.74
   8967.04    9.609  2.74
   8969.78    9.610  2.74
   8972.52    9.619  2.74
   8975.26    9.604  2.74
   8978.00    9.575  2.74
   8980.74    9.585  2.74
   8983.48    9.600  2.74
   8986.22    9.578  2.74
   8988.96    9.560  2.74
   8991.70    9.562  2.74
   8994.44    9.568  2.74
   8997.18    9.582  2.74
   8999.92    9.575  2.74
   9002.66    9.562  2.74
   9005.40    9.586  2.74
   9008.14    9.611  2.74
   9010.88    9.606  2.74
   9013.62    9.616  2.74
   9016.36    9.649  2.74
   9019.10    9.683  2.74
   9021.84    9.721  2.74
   9024.58    9.679  2.74
   9027.32    9.617  2.74
   9030.06    9.594  2.74
   9032.80    9.580  2.74
   9035.54    9.568  2.74
   9038.28    9.574  2.74
   9041.02    9.607  2.74
   9043.76    9.588  2.74
   9046.50    9.549  2.74
   9049.24    9.543  2.74
   9051.98    9.548  2.74
   9054.72    9.552  2.74
   9057.46    9.563  2.74
   9060.20    9.589  2.74
   9062.94    9.601  2.74
   9065.68    9.604  2.74
   9068.42    9.576  2.74
   9071.16    9.545  2.74
   9073.90    9.567  2.74
   9076.64    9.588  2.74
   9079.38    9.583  2.74
   9082.12    9.577  2.74
   9084.86    9.569  2.74
   9087.60    9.572  2.74
   9090.34    9.581  2.74
   9093.08    9.589  2.74
   9095.82    9.596  2.74
   9098.56    9.599  2.74
   9101.30    9.603  2.74
   9104.04    9.612  2.74
   9106.78    9.611  2.74
   9109.52    9.601  2.74
   9112.26    9.581  2.74
   9115.00    9.563  2.74
   9117.74    9.576  2.74
   9120.48    9.580  2.74
   9123.22    9.537  2.74
   9125.96    9.528  2.74
   9128.70    9.560  2.74
   9131.44    9.583  2.74
   9134.18    9.602  2.74
   9136.92    9.584  2.74
   9139.66    9.567  2.74
   9142.40    9.598  2.74
   9145.14    9.617  2.74
   9147.88    9.603  2.74
   9150.62    9.603  2.74
   9153.36    9.613  2.74
   9156.10    9.606  2.74
   9158.84    9.595  2.74
   9161.58    9.602  2.74
   9164.32    9.604  2.74
   9167.06    9.585  2.74
   9169.80    9.578  2.74
   9172.54    9.591  2.74
   9175.28    9.592  2.74
   9178.02    9.589  2.74
   9180.76    9.591  2.74
   9183.50    9.596  2.74
   9186.24    9.617  2.74
   9188.98    9.619  2.74
   9191.72    9.577  2.74
   9194.46    9.561  2.74
   9197.20    9.564  2.74
   9199.94    9.584  2.74
   9202.68    9.613  2.74
   9205.42    9.633  2.74
   9208.16    9.640  2.74
   9210.90    9.614  2.74
   9213.64    9.602  2.74
   9216.38    9.611  2.74
   9219.12    9.610  2.74
   9221.86    9.605  2.74
   9224.60    9.622  2.74
   9227.34    9.642  2.74
   9230.08    9.645  2.74
   9232.82    9.644  2.74
   9235.56    9.642  2.74
   9238.30    9.634  2.74
   9241.04    9.620  2.74
   9243.78    9.614  2.74
   9246.52    9.612  2.74
   9249.26    9.599  2.74
   9252.00    9.587  2.74
   9254.74    9.583  2.74
   9257.48    9.580  2.74
   9260.22    9.579  2.74
   9262.96    9.580  2.74
   9265.70    9.582  2.74
   9268.44    9.597  2.74
   9271.18    9.613  2.74
   9273.92    9.606  2.74
   9276.66    9.607  2.74
   9279.40    9.642  2.74
   9282.14    9.646  2.74
   9284.88    9.615  2.74
   9287.62    9.615  2.74
   9290.36    9.624  2.74
   9293.10    9.610  2.74
   9295.84    9.598  2.74
   9298.58    9.601  2.74
   9301.32    9.617  2.74
   9304.06    9.661  2.74
   9306.80    9.664  2.74
   9309.54    9.636  2.74
   9312.28    9.596  2.74
   9315.02    9.559  2.74
   9317.76    9.572  2.74
   9320.50    9.591  2.74
   9323.24    9.611  2.74
   9325.98    9.600  2.74
   9328.72    9.550  2.74
   9331.46    9.534  2.74
   9334.20    9.536  2.74
   9336.94    9.555  2.74
   9339.68    9.573  2.74
   9342.42    9.565  2.74
   9345.16    9.566  2.74
   9347.90    9.591  2.74
   9350.64    9.596  2.74
   9353.38    9.587  2.74
   9356.12    9.582  2.74
   9358.86    9.582  2.74
   9361.60    9.607  2.74
   9364.34    9.623  2.74
   9367.08    9.600  2.74
   9369.82    9.594  2.74
   9372.56    9.612  2.74
   9375.30    9.601  2.74
   9378.04    9.579  2.74
   9380.78    9.594  2.74
   9383.52    9.619  2.74
   9386.26    9.640  2.74
   9389.00    9.633  2.74
   9391.74    9.564  2.74
   9394.48    9.563  2.74
   9397.22    9.619  2.74
   9399.96    9.628  2.74
   9402.70    9.620  2.74
   9405.44    9.610  2.74
   9408.18    9.598  2.74
   9410.92    9.586  2.74
   9413.66    9.575  2.74
   9416.40    9.561  2.74
   9419.14    9.567  2.74
   9421.88    9.587  2.74
   9424.62    9.590  2.74
   9427.36    9.593  2.74
   9430.10    9.626  2.74
   9432.84    9.638  2.74
   9435.58    9.598  2.74
   9438.32    9.592  2.74
   9441.06    9.615  2.74
   9443.80    9.612  2.74
   9446.54    9.603  2.74
   9449.28    9.620  2.74
   9452.02    9.632  2.74
   9454.76    9.609  2.74
   9457.50    9.604  2.74
   9460.24    9.629  2.74
   9462.98    9.631  2.74
   9465.72    9.622  2.74
   9468.46    9.619  2.74
   9471.20    9.620  2.74
   9473.94    9.629  2.74
   9476.68    9.633  2.74
   9479.42    9.623  2.74
   9482.16    9.625  2.74
   9484.90    9.643  2.74
   9487.64    9.635  2.74
   9490.38    9.620  2.74
   9493.12    9.636  2.74
   9495.86    9.658  2.74
   9498.60    9.686  2.74
   9501.34    9.669  2.74
   9504.08    9.572  2.74
   9506.82    9.560  2.74
   9509.56    9.596  2.74
   9512.30    9.614  2.74
   9515.04    9.623  2.74
   9517.78    9.592  2.74
   9520.52    9.579  2.74
   9523.26    9.623  2.74
   9526.00    9.620  2.74
   9528.74    9.563  2.74
   9531.48    9.573  2.74
   9534.22    9.614  2.74
   9536.96    9.644  2.74
   9539.70    9.676  2.74
   9542.44    9.724  2.74
   9545.18    9.739  2.74
   9547.92    9.693  2.74
   9550.66    9.677  2.74
   9553.40    9.675  2.74
   9556.14    9.656  2.74
   9558.88    9.638  2.74
   9561.62    9.648  2.74
   9564.36    9.653  2.74
   9567.10    9.631  2.74
   9569.84    9.625  2.74
   9572.58    9.638  2.74
   9575.32    9.633  2.74
   9578.06    9.621  2.74
   9580.80    9.624  2.74
   9583.54    9.628  2.74
   9586.28    9.617  2.74
   9589.02    9.615  2.74
   9591.76    9.636  2.74
   9594.50    9.622  2.74
   9597.24    9.582  2.74
   9599.98    9.583  2.74
   9602.72    9.600  2.74
   9605.46    9.617  2.74
   9608.20    9.621  2.74
   9610.94    9.589  2.74
   9613.68    9.579  2.74
   9616.42    9.593  2.74
   9619.16    9.603  2.74
   9621.90    9.615  2.74
   9624.64    9.628  2.74
   9627.38    9.634  2.74
   9630.12    9.612  2.74
   9632.86    9.606  2.74
   9635.60    9.632  2.74
   9638.34    9.649  2.74
   9641.08    9.661  2.74
   9643.82    9.673  2.74
   9646.56    9.681  2.74
   9649.30    9.671  2.74
   9652.04    9.658  2.74
   9654.78    9.656  2.74
   9657.52    9.647  2.74
   9660.26    9.630  2.74
   9663.00    9.612  2.74
   9665.74    9.596  2.74
   9668.48    9.611  2.74
   9671.22    9.633  2.74
   9673.96    9.635  2.74
   9676.70    9.633  2.74
   9679.44    9.628  2.74
   9682.18    9.609  2.74
   9684.92    9.573  2.74
   9687.66    9.586  2.74
   9690.40    9.617  2.74
   9693.14    9.606  2.74
   9695.88    9.598  2.74
   9698.62    9.624  2.74
   9701.36    9.629  2.74
   9704.10    9.598  2.74
   9706.84    9.597  2.74
   9709.58    9.609  2.74
   9712.32    9.616  2.74
   9715.06    9.619  2.74
   9717.80    9.614  2.74
   9720.54    9.612  2.74
   9723.28    9.614  2.74
   9726.02    9.632  2.74
   9728.76    9.676  2.74
   9731.50    9.642  2.74
   9734.24    9.587  2.74
   9736.98    9.647  2.74
   9739.72    9.696  2.74
   9742.46    9.618  2.74
   9745.20    9.584  2.74
   9747.94    9.620  2.74
   9750.68    9.632  2.74
   9753.42    9.636  2.74
   9756.16    9.647  2.74
   9758.90    9.656  2.74
   9761.64    9.659  2.74
   9764.38    9.644  2.74
   9767.12    9.590  2.74
   9769.86    9.580  2.74
   9772.60    9.613  2.74
   9775.34    9.628  2.74
   9778.08    9.635  2.74
   9780.82    9.615  2.74
   9783.56    9.592  2.74
   9786.30    9.576  2.74
   9789.04    9.578  2.74
   9791.78    9.617  2.74
   9794.52    9.607  2.74
   9797.26    9.568  2.74
   9800.00    9.573  2.74
   9802.74    9.595  2.74
   9805.48    9.618  2.74
   9808.22    9.635  2.74
   9810.96    9.636  2.74
   9813.70    9.622  2.74
   9816.44    9.586  2.74
   9819.18    9.608  2.74
   9821.92    9.656  2.74
   9824.66    9.651  2.74
   9827.40    9.631  2.74
   9830.14    9.615  2.74
   9832.88    9.601  2.74
   9835.62    9.588  2.74
   9838.36    9.593  2.74
   9841.10    9.613  2.74
   9843.84    9.629  2.74
   9846.58    9.641  2.74
   9849.32    9.633  2.74
   9852.06    9.632  2.74
   9854.80    9.663  2.74
   9857.54    9.660  2.74
   9860.28    9.614  2.74
   9863.02    9.600  2.74
   9865.76    9.596  2.74
   9868.50    9.579  2.74
   9871.24    9.580  2.74
   9873.98    9.661  2.74
   9876.72    9.697  2.74
   9879.46    9.626  2.74
   9882.20    9.597  2.74
   9884.94    9.590  2.74
   9887.68    9.610  2.74
   9890.42    9.645  2.74
   9893.16    9.677  2.74
   9895.90    9.690  2.74
   9898.64    9.649  2.74
   9901.38    9.642  2.74
   9904.12    9.692  2.74
   9906.86    9.680  2.74
   9909.60    9.640  2.74
   9912.34    9.643  2.74
   9915.08    9.649  2.74
   9917.82    9.627  2.74
   9920.56    9.613  2.74
   9923.30    9.613  2.74
   9926.04    9.618  2.74
   9928.78    9.628  2.74
   9931.52    9.649  2.74
   9934.26    9.668  2.74
   9937.00    9.636  2.74
   9939.74    9.602  2.74
   9942.48    9.582  2.74
   9945.22    9.582  2.74
   9947.96    9.611  2.74
   9950.70    9.635  2.74
   9953.44    9.660  2.74
   9956.18    9.675  2.74
   9958.92    9.671  2.74
   9961.66    9.608  2.74
   9964.40    9.577  2.74
   9967.14    9.621  2.74
   9969.88    9.647  2.74
   9972.62    9.664  2.74
   9975.36    9.619  2.74
   9978.10    9.562  2.74
   9980.84    9.620  2.74
   9983.58    9.679  2.74
   9986.32    9.649  2.74
   9989.06    9.622  2.74
   9991.80    9.599  2.74
   9994.54    9.593  2.74
   9997.28    9.597  2.74
  10000.02    9.597  2.74
  10002.76    9.592  2.74
  10005.50    9.571  2.74
  10008.24    9.555  2.74
  10010.98    9.545  2.74
  10013.72    9.561  2.74
  10016.46    9.609  2.74
  10019.20    9.653  2.74
  10021.94    9.685  2.74
  10024.68    9.610  2.74
  10027.42    9.549  2.74
  10030.16    9.598  2.74
  10032.90    9.649  2.74
  10035.64    9.703  2.74
  10038.38    9.684  2.74
  10041.12    9.613  2.74
  10043.86    9.682  2.74
  10046.60    9.797  2.74
  10049.34    9.853  2.74
  10052.08    9.823  2.74
  10054.82    9.626  2.74
  10057.56    9.580  2.74
  10060.30    9.688  2.74
  10063.04    9.696  2.74
  10065.78    9.664  2.74
  10068.52    9.620  2.74
  10071.26    9.587  2.74
  10074.00    9.598  2.74
  10076.74    9.613  2.74
  10079.48    9.637  2.74
  10082.22    9.622  2.74
  10084.96    9.578  2.74
  10087.70    9.594  2.74
  10090.44    9.622  2.74
  10093.18    9.569  2.74
  10095.92    9.549  2.74
  10098.66    9.648  2.74
  10101.40    9.677  2.74
  10104.14    9.610  2.74
  10106.88    9.603  2.74
  10109.62    9.619  2.74
  10112.36    9.639  2.74
  10115.10    9.675  2.74
  10117.84    9.783  2.74
  10120.58    9.787  2.74
  10123.32    9.565  2.74
  10126.06    9.572  2.74
  10128.80    9.755  2.74
  10131.54    9.787  2.74
  10134.28    9.750  2.74
  10137.02    9.655  2.74
  10139.76    9.594  2.74
  10142.50    9.633  2.74
  10145.24    9.672  2.74
  10147.98    9.724  2.74
  10150.72    9.685  2.74
  10153.46    9.604  2.74
  10156.20    9.682  2.74
  10158.94    9.758  2.74
  10161.68    9.613  2.74
  10164.42    9.531  2.74
  10167.16    9.573  2.74
  10169.90    9.618  2.74
  10172.64    9.685  2.74
  10175.38    9.643  2.74
  10178.12    9.571  2.74
  10180.86    9.610  2.74
  10183.60    9.640  2.74
  10186.34    9.585  2.74
  10189.08    9.548  2.74
  10191.82    9.521  2.74
  10194.56    9.522  2.74
  10197.30    9.575  2.74
  10200.04   10.347  2.74
  10202.78-NaN       2.74
  10205.52-NaN       2.74
