#HD165195                                                    
#                                                            
#  Heap-Lindler STIS                                         
# wavelength  ABmag  band
   2950.00   13.316  2.74
   2952.74   13.244  2.74
   2955.48   13.125  2.74
   2958.22   13.070  2.74
   2960.96   13.130  2.74
   2963.70   13.147  2.74
   2966.44   13.321  2.74
   2969.18   13.323  2.74
   2971.92   13.183  2.74
   2974.66   13.017  2.74
   2977.40   12.923  2.74
   2980.14   13.045  2.74
   2982.88   13.165  2.74
   2985.62   13.174  2.74
   2988.36   12.974  2.74
   2991.10   12.823  2.74
   2993.84   12.861  2.74
   2996.58   12.807  2.74
   2999.32   12.898  2.74
   3002.06   12.987  2.74
   3004.80   12.885  2.74
   3007.54   12.848  2.74
   3010.28   12.681  2.74
   3013.02   12.782  2.74
   3015.76   12.833  2.74
   3018.50   12.965  2.74
   3021.24   13.031  2.74
   3023.98   12.765  2.74
   3026.72   12.700  2.74
   3029.46   12.708  2.74
   3032.20   12.730  2.74
   3034.94   12.616  2.74
   3037.68   12.656  2.74
   3040.42   12.673  2.74
   3043.16   12.660  2.74
   3045.90   12.580  2.74
   3048.64   12.581  2.74
   3051.38   12.498  2.74
   3054.12   12.587  2.74
   3056.86   12.669  2.74
   3059.60   12.747  2.74
   3062.34   12.745  2.74
   3065.08   12.967  2.74
   3067.82   13.063  2.74
   3070.56   12.871  2.74
   3073.30   12.670  2.74
   3076.04   12.587  2.74
   3078.78   12.601  2.74
   3081.52   12.611  2.74
   3084.26   12.653  2.74
   3087.00   12.631  2.74
   3089.74   12.803  2.74
   3092.48   13.043  2.74
   3095.22   12.850  2.74
   3097.96   12.774  2.74
   3100.70   12.835  2.74
   3103.44   12.659  2.74
   3106.18   12.450  2.74
   3108.92   12.451  2.74
   3111.66   12.377  2.74
   3114.40   12.360  2.74
   3117.14   12.495  2.74
   3119.88   12.596  2.74
   3122.62   12.664  2.74
   3125.36   12.682  2.74
   3128.10   12.681  2.74
   3130.84   12.602  2.74
   3133.58   12.435  2.74
   3136.32   12.356  2.74
   3139.06   12.370  2.74
   3141.80   12.410  2.74
   3144.54   12.479  2.74
   3147.28   12.486  2.74
   3150.02   12.367  2.74
   3152.76   12.334  2.74
   3155.50   12.321  2.74
   3158.24   12.342  2.74
   3160.98   12.406  2.74
   3163.72   12.324  2.74
   3166.46   12.251  2.74
   3169.20   12.129  2.74
   3171.94   12.014  2.74
   3174.68   11.999  2.74
   3177.42   12.055  2.74
   3180.16   12.121  2.74
   3182.90   12.235  2.74
   3185.64   12.274  2.74
   3188.38   12.138  2.74
   3191.12   12.170  2.74
   3193.86   12.250  2.74
   3196.60   12.063  2.74
   3199.34   11.967  2.74
   3202.08   11.957  2.74
   3204.82   11.913  2.74
   3207.56   11.876  2.74
   3210.30   11.976  2.74
   3213.04   12.072  2.74
   3215.78   12.010  2.74
   3218.52   11.891  2.74
   3221.26   11.867  2.74
   3224.00   11.921  2.74
   3226.74   11.989  2.74
   3229.48   11.978  2.74
   3232.22   11.986  2.74
   3234.96   12.005  2.74
   3237.70   11.962  2.74
   3240.44   11.842  2.74
   3243.18   11.790  2.74
   3245.92   11.701  2.74
   3248.66   11.725  2.74
   3251.40   11.731  2.74
   3254.14   11.690  2.74
   3256.88   11.560  2.74
   3259.62   11.479  2.74
   3262.36   11.516  2.74
   3265.10   11.544  2.74
   3267.84   11.517  2.74
   3270.58   11.499  2.74
   3273.32   11.547  2.74
   3276.06   11.552  2.74
   3278.80   11.548  2.74
   3281.54   11.559  2.74
   3284.28   11.520  2.74
   3287.02   11.552  2.74
   3289.76   11.468  2.74
   3292.50   11.318  2.74
   3295.24   11.289  2.74
   3297.98   11.340  2.74
   3300.72   11.346  2.74
   3303.46   11.364  2.74
   3306.20   11.396  2.74
   3308.94   11.448  2.74
   3311.68   11.443  2.74
   3314.42   11.408  2.74
   3317.16   11.440  2.74
   3319.90   11.426  2.74
   3322.64   11.417  2.74
   3325.38   11.456  2.74
   3328.12   11.445  2.74
   3330.86   11.448  2.74
   3333.60   11.425  2.74
   3336.34   11.508  2.74
   3339.08   11.472  2.74
   3341.82   11.405  2.74
   3344.56   11.391  2.74
   3347.30   11.408  2.74
   3350.04   11.434  2.74
   3352.78   11.341  2.74
   3355.52   11.324  2.74
   3358.26   11.572  2.74
   3361.00   11.833  2.74
   3363.74   11.625  2.74
   3366.48   11.462  2.74
   3369.22   11.601  2.74
   3371.96   11.690  2.74
   3374.70   11.515  2.74
   3377.44   11.341  2.74
   3380.18   11.373  2.74
   3382.92   11.412  2.74
   3385.66   11.385  2.74
   3388.40   11.390  2.74
   3391.14   11.327  2.74
   3393.88   11.295  2.74
   3396.62   11.190  2.74
   3399.36   11.060  2.74
   3402.10   11.067  2.74
   3404.84   11.150  2.74
   3407.58   11.190  2.74
   3410.32   11.178  2.74
   3413.06   11.170  2.74
   3415.80   11.165  2.74
   3418.54   11.054  2.74
   3421.28   10.991  2.74
   3424.02   11.007  2.74
   3426.76   10.998  2.74
   3429.50   10.927  2.74
   3432.24   10.885  2.74
   3434.98   10.931  2.74
   3437.72   10.929  2.74
   3440.46   11.048  2.74
   3443.20   11.115  2.74
   3445.94   11.001  2.74
   3448.68   10.865  2.74
   3451.42   10.849  2.74
   3454.16   10.865  2.74
   3456.90   10.827  2.74
   3459.64   10.824  2.74
   3462.38   10.825  2.74
   3465.12   10.791  2.74
   3467.86   10.765  2.74
   3470.60   10.749  2.74
   3473.34   10.809  2.74
   3476.08   10.892  2.74
   3478.82   10.833  2.74
   3481.56   10.742  2.74
   3484.30   10.732  2.74
   3487.04   10.713  2.74
   3489.78   10.725  2.74
   3492.52   10.787  2.74
   3495.26   10.784  2.74
   3498.00   10.792  2.74
   3500.74   10.680  2.74
   3503.48   10.634  2.74
   3506.22   10.656  2.74
   3508.96   10.658  2.74
   3511.70   10.670  2.74
   3514.44   10.695  2.74
   3517.18   10.616  2.74
   3519.92   10.637  2.74
   3522.66   10.724  2.74
   3525.40   10.767  2.74
   3528.14   10.692  2.74
   3530.88   10.583  2.74
   3533.62   10.538  2.74
   3536.36   10.501  2.74
   3539.10   10.482  2.74
   3541.84   10.453  2.74
   3544.58   10.431  2.74
   3547.32   10.448  2.74
   3550.06   10.447  2.74
   3552.80   10.483  2.74
   3555.54   10.469  2.74
   3558.28   10.425  2.74
   3561.02   10.446  2.74
   3563.76   10.478  2.74
   3566.50   10.550  2.74
   3569.24   10.555  2.74
   3571.98   10.564  2.74
   3574.72   10.544  2.74
   3577.46   10.506  2.74
   3580.20   10.474  2.74
   3582.94   10.539  2.74
   3585.68   10.585  2.74
   3588.42   10.632  2.74
   3591.16   10.501  2.74
   3593.90   10.399  2.74
   3596.64   10.352  2.74
   3599.38   10.309  2.74
   3602.12   10.318  2.74
   3604.86   10.365  2.74
   3607.60   10.373  2.74
   3610.34   10.415  2.74
   3613.08   10.423  2.74
   3615.82   10.388  2.74
   3618.56   10.362  2.74
   3621.30   10.380  2.74
   3624.04   10.295  2.74
   3626.78   10.250  2.74
   3629.52   10.248  2.74
   3632.26   10.357  2.74
   3635.00   10.337  2.74
   3637.74   10.280  2.74
   3640.48   10.204  2.74
   3643.22   10.253  2.74
   3645.96   10.298  2.74
   3648.70   10.297  2.74
   3651.44   10.260  2.74
   3654.18   10.193  2.74
   3656.92   10.128  2.74
   3659.66   10.119  2.74
   3662.40   10.126  2.74
   3665.14   10.125  2.74
   3667.88   10.135  2.74
   3670.62   10.149  2.74
   3673.36   10.102  2.74
   3676.10   10.108  2.74
   3678.84   10.142  2.74
   3681.58   10.118  2.74
   3684.32   10.098  2.74
   3687.06   10.133  2.74
   3689.80   10.086  2.74
   3692.54   10.013  2.74
   3695.28   10.003  2.74
   3698.02    9.962  2.74
   3700.76    9.919  2.74
   3703.50    9.982  2.74
   3706.24   10.098  2.74
   3708.98   10.096  2.74
   3711.72   10.005  2.74
   3714.46    9.918  2.74
   3717.20    9.909  2.74
   3719.94   10.004  2.74
   3722.68   10.102  2.74
   3725.42    9.985  2.74
   3728.16    9.958  2.74
   3730.90    9.988  2.74
   3733.64   10.090  2.74
   3736.38   10.157  2.74
   3739.12   10.039  2.74
   3741.86    9.947  2.74
   3744.60   10.001  2.74
   3747.34   10.073  2.74
   3750.08   10.124  2.74
   3752.82    9.957  2.74
   3755.56    9.827  2.74
   3758.30    9.888  2.74
   3761.04    9.947  2.74
   3763.78    9.853  2.74
   3766.52    9.822  2.74
   3769.26    9.815  2.74
   3772.00    9.817  2.74
   3774.74    9.778  2.74
   3777.48    9.781  2.74
   3780.22    9.707  2.74
   3782.96    9.673  2.74
   3785.70    9.720  2.74
   3788.44    9.805  2.74
   3791.18    9.787  2.74
   3793.92    9.788  2.74
   3796.66    9.846  2.74
   3799.40    9.846  2.74
   3802.14    9.705  2.74
   3804.88    9.628  2.74
   3807.62    9.667  2.74
   3810.36    9.661  2.74
   3813.10    9.682  2.74
   3815.84    9.752  2.74
   3818.58    9.728  2.74
   3821.32    9.783  2.74
   3824.06    9.744  2.74
   3826.80    9.808  2.74
   3829.54    9.777  2.74
   3832.28    9.799  2.74
   3835.02    9.865  2.74
   3837.76    9.803  2.74
   3840.50    9.764  2.74
   3843.24    9.675  2.74
   3845.98    9.615  2.74
   3848.72    9.605  2.74
   3851.46    9.630  2.74
   3854.20    9.595  2.74
   3856.94    9.624  2.74
   3859.68    9.679  2.74
   3862.42    9.612  2.74
   3865.16    9.538  2.74
   3867.90    9.539  2.74
   3870.64    9.576  2.74
   3873.38    9.677  2.74
   3876.12    9.641  2.74
   3878.86    9.647  2.74
   3881.60    9.604  2.74
   3884.34    9.618  2.74
   3887.08    9.675  2.74
   3889.82    9.683  2.74
   3892.56    9.584  2.74
   3895.30    9.601  2.74
   3898.04    9.572  2.74
   3900.78    9.571  2.74
   3903.52    9.556  2.74
   3906.26    9.587  2.74
   3909.00    9.534  2.74
   3911.74    9.478  2.74
   3914.48    9.504  2.74
   3917.22    9.536  2.74
   3919.96    9.579  2.74
   3922.70    9.620  2.74
   3925.44    9.687  2.74
   3928.18    9.934  2.74
   3930.92   10.424  2.74
   3933.66   10.913  2.74
   3936.40   10.659  2.74
   3939.14   10.087  2.74
   3941.88    9.764  2.74
   3944.62    9.636  2.74
   3947.36    9.521  2.74
   3950.10    9.503  2.74
   3952.84    9.472  2.74
   3955.58    9.427  2.74
   3958.32    9.450  2.74
   3961.06    9.501  2.74
   3963.80    9.747  2.74
   3966.54   10.206  2.74
   3969.28   10.587  2.74
   3972.02   10.074  2.74
   3974.76    9.643  2.74
   3977.50    9.424  2.74
   3980.24    9.332  2.74
   3982.98    9.311  2.74
   3985.72    9.240  2.74
   3988.46    9.230  2.74
   3991.20    9.215  2.74
   3993.94    9.197  2.74
   3996.68    9.249  2.74
   3999.42    9.247  2.74
   4002.16    9.171  2.74
   4004.90    9.191  2.74
   4007.64    9.192  2.74
   4010.38    9.143  2.74
   4013.12    9.133  2.74
   4015.86    9.115  2.74
   4018.60    9.104  2.74
   4021.34    9.108  2.74
   4024.08    9.118  2.74
   4026.82    9.102  2.74
   4029.56    9.102  2.74
   4032.30    9.152  2.74
   4035.04    9.113  2.74
   4037.78    9.041  2.74
   4040.52    9.036  2.74
   4043.26    9.064  2.74
   4046.00    9.105  2.74
   4048.74    9.050  2.74
   4051.48    9.019  2.74
   4054.22    9.033  2.74
   4056.96    9.028  2.74
   4059.70    9.026  2.74
   4062.44    9.042  2.74
   4065.18    9.049  2.74
   4067.92    9.033  2.74
   4070.66    9.013  2.74
   4073.40    9.012  2.74
   4076.14    9.046  2.74
   4078.88    9.063  2.74
   4081.62    8.984  2.74
   4084.36    8.974  2.74
   4087.10    8.948  2.74
   4089.84    8.914  2.74
   4092.58    8.922  2.74
   4095.32    8.940  2.74
   4098.06    8.974  2.74
   4100.80    9.068  2.74
   4103.54    9.069  2.74
   4106.28    8.968  2.74
   4109.02    8.953  2.74
   4111.76    8.938  2.74
   4114.50    8.905  2.74
   4117.24    8.905  2.74
   4119.98    8.936  2.74
   4122.72    8.923  2.74
   4125.46    8.899  2.74
   4128.20    8.914  2.74
   4130.94    8.932  2.74
   4133.68    8.953  2.74
   4136.42    8.901  2.74
   4139.16    8.864  2.74
   4141.90    8.900  2.74
   4144.64    8.933  2.74
   4147.38    8.886  2.74
   4150.12    8.890  2.74
   4152.86    8.889  2.74
   4155.60    8.879  2.74
   4158.34    8.843  2.74
   4161.08    8.823  2.74
   4163.82    8.816  2.74
   4166.56    8.809  2.74
   4169.30    8.817  2.74
   4172.04    8.884  2.74
   4174.78    8.925  2.74
   4177.52    8.888  2.74
   4180.26    8.833  2.74
   4183.00    8.826  2.74
   4185.74    8.831  2.74
   4188.48    8.836  2.74
   4191.22    8.819  2.74
   4193.96    8.787  2.74
   4196.70    8.808  2.74
   4199.44    8.849  2.74
   4202.18    8.853  2.74
   4204.92    8.847  2.74
   4207.66    8.801  2.74
   4210.40    8.777  2.74
   4213.14    8.773  2.74
   4215.88    8.802  2.74
   4218.62    8.777  2.74
   4221.36    8.755  2.74
   4224.10    8.801  2.74
   4226.84    8.854  2.74
   4229.58    8.779  2.74
   4232.32    8.765  2.74
   4235.06    8.772  2.74
   4237.80    8.765  2.74
   4240.54    8.729  2.74
   4243.28    8.716  2.74
   4246.02    8.738  2.74
   4248.76    8.773  2.74
   4251.50    8.758  2.74
   4254.24    8.729  2.74
   4256.98    8.718  2.74
   4259.72    8.731  2.74
   4262.46    8.694  2.74
   4265.20    8.660  2.74
   4267.94    8.679  2.74
   4270.68    8.722  2.74
   4273.42    8.743  2.74
   4276.16    8.699  2.74
   4278.90    8.674  2.74
   4281.64    8.694  2.74
   4284.38    8.710  2.74
   4287.12    8.757  2.74
   4289.86    8.751  2.74
   4292.60    8.773  2.74
   4295.34    8.769  2.74
   4298.08    8.827  2.74
   4300.82    8.891  2.74
   4303.56    8.886  2.74
   4306.30    8.871  2.74
   4309.04    8.882  2.74
   4311.78    8.840  2.74
   4314.52    8.745  2.74
   4317.26    8.622  2.74
   4320.00    8.593  2.74
   4322.74    8.631  2.74
   4325.48    8.651  2.74
   4328.22    8.590  2.74
   4330.96    8.554  2.74
   4333.70    8.542  2.74
   4336.44    8.605  2.74
   4339.18    8.720  2.74
   4341.92    8.684  2.74
   4344.66    8.581  2.74
   4347.40    8.529  2.74
   4350.14    8.550  2.74
   4352.88    8.572  2.74
   4355.62    8.531  2.74
   4358.36    8.520  2.74
   4361.10    8.505  2.74
   4363.84    8.485  2.74
   4366.58    8.499  2.74
   4369.32    8.526  2.74
   4372.06    8.527  2.74
   4374.80    8.563  2.74
   4377.54    8.520  2.74
   4380.28    8.497  2.74
   4383.02    8.548  2.74
   4385.76    8.552  2.74
   4388.50    8.522  2.74
   4391.24    8.501  2.74
   4393.98    8.508  2.74
   4396.72    8.498  2.74
   4399.46    8.497  2.74
   4402.20    8.486  2.74
   4404.94    8.494  2.74
   4407.68    8.501  2.74
   4410.42    8.460  2.74
   4413.16    8.443  2.74
   4415.90    8.473  2.74
   4418.64    8.459  2.74
   4421.38    8.432  2.74
   4424.12    8.428  2.74
   4426.86    8.443  2.74
   4429.60    8.439  2.74
   4432.34    8.435  2.74
   4435.08    8.441  2.74
   4437.82    8.393  2.74
   4440.56    8.397  2.74
   4443.30    8.445  2.74
   4446.04    8.425  2.74
   4448.78    8.390  2.74
   4451.52    8.384  2.74
   4454.26    8.399  2.74
   4457.00    8.394  2.74
   4459.74    8.390  2.74
   4462.48    8.384  2.74
   4465.22    8.372  2.74
   4467.96    8.386  2.74
   4470.70    8.357  2.74
   4473.44    8.316  2.74
   4476.18    8.301  2.74
   4478.92    8.299  2.74
   4481.66    8.316  2.74
   4484.40    8.301  2.74
   4487.14    8.294  2.74
   4489.88    8.310  2.74
   4492.62    8.304  2.74
   4495.36    8.308  2.74
   4498.10    8.290  2.74
   4500.84    8.278  2.74
   4503.58    8.258  2.74
   4506.32    8.248  2.74
   4509.06    8.252  2.74
   4511.80    8.249  2.74
   4514.54    8.255  2.74
   4517.28    8.266  2.74
   4520.02    8.271  2.74
   4522.76    8.277  2.74
   4525.50    8.281  2.74
   4528.24    8.300  2.74
   4530.98    8.298  2.74
   4533.72    8.312  2.74
   4536.46    8.280  2.74
   4539.20    8.228  2.74
   4541.94    8.228  2.74
   4544.68    8.245  2.74
   4547.42    8.267  2.74
   4550.16    8.275  2.74
   4552.90    8.265  2.74
   4555.64    8.242  2.74
   4558.38    8.202  2.74
   4561.12    8.191  2.74
   4563.86    8.203  2.74
   4566.60    8.191  2.74
   4569.34    8.203  2.74
   4572.08    8.207  2.74
   4574.82    8.181  2.74
   4577.56    8.171  2.74
   4580.30    8.186  2.74
   4583.04    8.190  2.74
   4585.78    8.173  2.74
   4588.52    8.169  2.74
   4591.26    8.173  2.74
   4594.00    8.163  2.74
   4596.74    8.149  2.74
   4599.48    8.150  2.74
   4602.22    8.156  2.74
   4604.96    8.137  2.74
   4607.70    8.120  2.74
   4610.44    8.117  2.74
   4613.18    8.117  2.74
   4615.92    8.116  2.74
   4618.66    8.112  2.74
   4621.40    8.098  2.74
   4624.14    8.098  2.74
   4626.88    8.106  2.74
   4629.62    8.105  2.74
   4632.36    8.098  2.74
   4635.10    8.091  2.74
   4637.84    8.085  2.74
   4640.58    8.071  2.74
   4643.32    8.071  2.74
   4646.06    8.088  2.74
   4648.80    8.087  2.74
   4651.54    8.082  2.74
   4654.28    8.094  2.74
   4657.02    8.085  2.74
   4659.76    8.052  2.74
   4662.50    8.046  2.74
   4665.24    8.064  2.74
   4667.98    8.080  2.74
   4670.72    8.069  2.74
   4673.46    8.045  2.74
   4676.20    8.043  2.74
   4678.94    8.051  2.74
   4681.68    8.046  2.74
   4684.42    8.025  2.74
   4687.16    8.016  2.74
   4689.90    8.019  2.74
   4692.64    8.009  2.74
   4695.38    8.005  2.74
   4698.12    8.009  2.74
   4700.86    8.017  2.74
   4703.60    8.023  2.74
   4706.34    8.029  2.74
   4709.08    8.028  2.74
   4711.82    8.004  2.74
   4714.56    7.992  2.74
   4717.30    7.992  2.74
   4720.04    7.978  2.74
   4722.78    7.970  2.74
   4725.52    7.975  2.74
   4728.26    7.975  2.74
   4731.00    7.978  2.74
   4733.74    7.986  2.74
   4736.48    7.977  2.74
   4739.22    7.961  2.74
   4741.96    7.955  2.74
   4744.70    7.953  2.74
   4747.44    7.950  2.74
   4750.18    7.945  2.74
   4752.92    7.947  2.74
   4755.66    7.955  2.74
   4758.40    7.956  2.74
   4761.14    7.969  2.74
   4763.88    7.975  2.74
   4766.62    7.952  2.74
   4769.36    7.936  2.74
   4772.10    7.936  2.74
   4774.84    7.932  2.74
   4777.58    7.927  2.74
   4780.32    7.927  2.74
   4783.06    7.929  2.74
   4785.80    7.932  2.74
   4788.54    7.930  2.74
   4791.28    7.917  2.74
   4794.02    7.906  2.74
   4796.76    7.910  2.74
   4799.50    7.909  2.74
   4802.24    7.904  2.74
   4804.98    7.904  2.74
   4807.72    7.900  2.74
   4810.46    7.892  2.74
   4813.20    7.885  2.74
   4815.94    7.882  2.74
   4818.68    7.876  2.74
   4821.42    7.878  2.74
   4824.16    7.884  2.74
   4826.90    7.876  2.74
   4829.64    7.868  2.74
   4832.38    7.864  2.74
   4835.12    7.856  2.74
   4837.86    7.868  2.74
   4840.60    7.873  2.74
   4843.34    7.857  2.74
   4846.08    7.854  2.74
   4848.82    7.856  2.74
   4851.56    7.855  2.74
   4854.30    7.866  2.74
   4857.04    7.894  2.74
   4859.78    7.987  2.74
   4862.52    8.004  2.74
   4865.26    7.899  2.74
   4868.00    7.865  2.74
   4870.74    7.872  2.74
   4873.48    7.869  2.74
   4876.22    7.857  2.74
   4878.96    7.852  2.74
   4881.70    7.844  2.74
   4884.44    7.844  2.74
   4887.18    7.847  2.74
   4889.92    7.857  2.74
   4892.66    7.840  2.74
   4895.40    7.807  2.74
   4898.14    7.805  2.74
   4900.88    7.813  2.74
   4903.62    7.810  2.74
   4906.36    7.797  2.74
   4909.10    7.795  2.74
   4911.84    7.795  2.74
   4914.58    7.787  2.74
   4917.32    7.804  2.74
   4920.06    7.837  2.74
   4922.80    7.832  2.74
   4925.54    7.796  2.74
   4928.28    7.769  2.74
   4931.02    7.772  2.74
   4933.76    7.790  2.74
   4936.50    7.793  2.74
   4939.24    7.788  2.74
   4941.98    7.765  2.74
   4944.72    7.745  2.74
   4947.46    7.744  2.74
   4950.20    7.735  2.74
   4952.94    7.737  2.74
   4955.68    7.763  2.74
   4958.42    7.774  2.74
   4961.16    7.743  2.74
   4963.90    7.737  2.74
   4966.64    7.749  2.74
   4969.38    7.741  2.74
   4972.12    7.720  2.74
   4974.86    7.722  2.74
   4977.60    7.727  2.74
   4980.34    7.746  2.74
   4983.08    7.763  2.74
   4985.82    7.746  2.74
   4988.56    7.730  2.74
   4991.30    7.739  2.74
   4994.04    7.735  2.74
   4996.78    7.725  2.74
   4999.52    7.726  2.74
   5002.26    7.735  2.74
   5005.00    7.742  2.74
   5007.74    7.739  2.74
   5010.48    7.732  2.74
   5013.22    7.747  2.74
   5015.96    7.736  2.74
   5018.70    7.728  2.74
   5021.44    7.711  2.74
   5024.18    7.694  2.74
   5026.92    7.690  2.74
   5029.66    7.685  2.74
   5032.40    7.681  2.74
   5035.14    7.688  2.74
   5037.88    7.708  2.74
   5040.62    7.726  2.74
   5043.36    7.715  2.74
   5046.10    7.674  2.74
   5048.84    7.673  2.74
   5051.58    7.683  2.74
   5054.32    7.662  2.74
   5057.06    7.643  2.74
   5059.80    7.646  2.74
   5062.54    7.652  2.74
   5065.28    7.654  2.74
   5068.02    7.645  2.74
   5070.76    7.644  2.74
   5073.50    7.641  2.74
   5076.24    7.645  2.74
   5078.98    7.668  2.74
   5081.72    7.680  2.74
   5084.46    7.651  2.74
   5087.20    7.628  2.74
   5089.94    7.618  2.74
   5092.68    7.606  2.74
   5095.42    7.610  2.74
   5098.16    7.623  2.74
   5100.90    7.628  2.74
   5103.64    7.619  2.74
   5106.38    7.634  2.74
   5109.12    7.654  2.74
   5111.86    7.628  2.74
   5114.60    7.603  2.74
   5117.34    7.592  2.74
   5120.08    7.590  2.74
   5122.82    7.610  2.74
   5125.56    7.627  2.74
   5128.30    7.620  2.74
   5131.04    7.608  2.74
   5133.78    7.598  2.74
   5136.52    7.609  2.74
   5139.26    7.625  2.74
   5142.00    7.626  2.74
   5144.74    7.607  2.74
   5147.48    7.586  2.74
   5150.22    7.598  2.74
   5152.96    7.607  2.74
   5155.70    7.579  2.74
   5158.44    7.556  2.74
   5161.18    7.552  2.74
   5163.92    7.587  2.74
   5166.66    7.656  2.74
   5169.40    7.690  2.74
   5172.14    7.652  2.74
   5174.88    7.602  2.74
   5177.62    7.543  2.74
   5180.36    7.551  2.74
   5183.10    7.587  2.74
   5185.84    7.593  2.74
   5188.58    7.568  2.74
   5191.32    7.583  2.74
   5194.06    7.586  2.74
   5196.80    7.565  2.74
   5199.54    7.550  2.74
   5202.28    7.558  2.74
   5205.02    7.583  2.74
   5207.76    7.581  2.74
   5210.50    7.553  2.74
   5213.24    7.527  2.74
   5215.98    7.528  2.74
   5218.72    7.515  2.74
   5221.46    7.499  2.74
   5224.20    7.529  2.74
   5226.94    7.571  2.74
   5229.68    7.534  2.74
   5232.42    7.512  2.74
   5235.16    7.507  2.74
   5237.90    7.485  2.74
   5240.64    7.477  2.74
   5243.38    7.475  2.74
   5246.12    7.489  2.74
   5248.86    7.511  2.74
   5251.60    7.511  2.74
   5254.34    7.491  2.74
   5257.08    7.476  2.74
   5259.82    7.473  2.74
   5262.56    7.503  2.74
   5265.30    7.524  2.74
   5268.04    7.537  2.74
   5270.78    7.537  2.74
   5273.52    7.488  2.74
   5276.26    7.461  2.74
   5279.00    7.446  2.74
   5281.74    7.456  2.74
   5284.48    7.456  2.74
   5287.22    7.428  2.74
   5289.96    7.424  2.74
   5292.70    7.421  2.74
   5295.44    7.433  2.74
   5298.18    7.443  2.74
   5300.92    7.433  2.74
   5303.66    7.433  2.74
   5306.40    7.419  2.74
   5309.14    7.414  2.74
   5311.88    7.401  2.74
   5314.62    7.412  2.74
   5317.36    7.425  2.74
   5320.10    7.412  2.74
   5322.84    7.423  2.74
   5325.58    7.449  2.74
   5328.32    7.465  2.74
   5331.06    7.434  2.74
   5333.80    7.414  2.74
   5336.54    7.411  2.74
   5339.28    7.420  2.74
   5342.02    7.414  2.74
   5344.76    7.397  2.74
   5347.50    7.401  2.74
   5350.24    7.391  2.74
   5352.98    7.377  2.74
   5355.72    7.369  2.74
   5358.46    7.369  2.74
   5361.20    7.376  2.74
   5363.94    7.386  2.74
   5366.68    7.393  2.74
   5369.42    7.399  2.74
   5372.16    7.402  2.74
   5374.90    7.366  2.74
   5377.64    7.359  2.74
   5380.38    7.362  2.74
   5383.12    7.363  2.74
   5385.86    7.354  2.74
   5388.60    7.350  2.74
   5391.34    7.354  2.74
   5394.08    7.373  2.74
   5396.82    7.381  2.74
   5399.56    7.377  2.74
   5402.30    7.356  2.74
   5405.04    7.383  2.74
   5407.78    7.371  2.74
   5410.52    7.354  2.74
   5413.26    7.344  2.74
   5416.00    7.339  2.74
   5418.74    7.335  2.74
   5421.48    7.332  2.74
   5424.22    7.337  2.74
   5426.96    7.342  2.74
   5429.70    7.359  2.74
   5432.44    7.346  2.74
   5435.18    7.348  2.74
   5437.92    7.323  2.74
   5440.66    7.314  2.74
   5443.40    7.321  2.74
   5446.14    7.338  2.74
   5448.88    7.325  2.74
   5451.62    7.312  2.74
   5454.36    7.328  2.74
   5457.10    7.320  2.74
   5459.84    7.296  2.74
   5462.58    7.295  2.74
   5465.32    7.290  2.74
   5468.06    7.277  2.74
   5470.80    7.283  2.74
   5473.54    7.287  2.74
   5476.28    7.301  2.74
   5479.02    7.294  2.74
   5481.76    7.276  2.74
   5484.50    7.273  2.74
   5487.24    7.272  2.74
   5489.98    7.274  2.74
   5492.72    7.267  2.74
   5495.46    7.270  2.74
   5498.20    7.285  2.74
   5500.94    7.290  2.74
   5503.68    7.283  2.74
   5506.42    7.283  2.74
   5509.16    7.271  2.74
   5511.90    7.260  2.74
   5514.64    7.254  2.74
   5517.38    7.247  2.74
   5520.12    7.242  2.74
   5522.86    7.247  2.74
   5525.60    7.255  2.74
   5528.34    7.255  2.74
   5531.08    7.240  2.74
   5533.82    7.232  2.74
   5536.56    7.225  2.74
   5539.30    7.212  2.74
   5542.04    7.219  2.74
   5544.78    7.207  2.74
   5547.52    7.208  2.74
   5550.26    7.207  2.74
   5553.00    7.208  2.74
   5555.74    7.207  2.74
   5558.48    7.204  2.74
   5561.22    7.206  2.74
   5563.96    7.217  2.74
   5566.70    7.214  2.74
   5569.44    7.215  2.74
   5572.18    7.218  2.74
   5574.92    7.214  2.74
   5577.66    7.207  2.74
   5580.40    7.201  2.74
   5583.14    7.204  2.74
   5585.88    7.213  2.74
   5588.62    7.219  2.74
   5591.36    7.210  2.74
   5594.10    7.205  2.74
   5596.84    7.197  2.74
   5599.58    7.187  2.74
   5602.32    7.177  2.74
   5605.06    7.178  2.74
   5607.80    7.177  2.74
   5610.54    7.176  2.74
   5613.28    7.175  2.74
   5616.02    7.189  2.74
   5618.76    7.177  2.74
   5621.50    7.164  2.74
   5624.24    7.163  2.74
   5626.98    7.155  2.74
   5629.72    7.146  2.74
   5632.46    7.145  2.74
   5635.20    7.147  2.74
   5637.94    7.147  2.74
   5640.68    7.151  2.74
   5643.42    7.147  2.74
   5646.16    7.144  2.74
   5648.90    7.131  2.74
   5651.64    7.107  2.74
   5654.38    7.133  2.74
   5657.12    7.152  2.74
   5659.86    7.143  2.74
   5662.60    7.139  2.74
   5665.34    7.139  2.74
   5668.08    7.143  2.74
   5670.82    7.148  2.74
   5673.56    7.145  2.74
   5676.30    7.139  2.74
   5679.04    7.129  2.74
   5681.78    7.122  2.74
   5684.52    7.119  2.74
   5687.26    7.123  2.74
   5690.00    7.132  2.74
   5692.74    7.130  2.74
   5695.48    7.128  2.74
   5698.22    7.143  2.74
   5700.96    7.150  2.74
   5703.70    7.133  2.74
   5706.44    7.124  2.74
   5709.18    7.125  2.74
   5711.92    7.123  2.74
   5714.66    7.118  2.74
   5717.40    7.110  2.74
   5720.14    7.102  2.74
   5722.88    7.102  2.74
   5725.62    7.102  2.74
   5728.36    7.100  2.74
   5731.10    7.096  2.74
   5733.84    7.091  2.74
   5736.58    7.087  2.74
   5739.32    7.085  2.74
   5742.06    7.084  2.74
   5744.80    7.085  2.74
   5747.54    7.091  2.74
   5750.28    7.093  2.74
   5753.02    7.089  2.74
   5755.76    7.082  2.74
   5758.50    7.073  2.74
   5761.24    7.060  2.74
   5763.98    7.052  2.74
   5766.72    7.056  2.74
   5769.46    7.060  2.74
   5772.20    7.056  2.74
   5774.94    7.062  2.74
   5777.68    7.079  2.74
   5780.42    7.075  2.74
   5783.16    7.062  2.74
   5785.90    7.054  2.74
   5788.64    7.052  2.74
   5791.38    7.062  2.74
   5794.12    7.066  2.74
   5796.86    7.067  2.74
   5799.60    7.042  2.74
   5802.34    7.002  2.74
   5805.08    7.009  2.74
   5807.82    7.031  2.74
   5810.56    7.047  2.74
   5813.30    7.053  2.74
   5816.04    7.041  2.74
   5818.78    7.036  2.74
   5821.52    7.037  2.74
   5824.26    7.036  2.74
   5827.00    7.034  2.74
   5829.74    7.029  2.74
   5832.48    7.025  2.74
   5835.22    7.026  2.74
   5837.96    7.026  2.74
   5840.70    7.025  2.74
   5843.44    7.024  2.74
   5846.18    7.022  2.74
   5848.92    7.028  2.74
   5851.66    7.036  2.74
   5854.40    7.044  2.74
   5857.14    7.048  2.74
   5859.88    7.047  2.74
   5862.62    7.038  2.74
   5865.36    7.019  2.74
   5868.10    7.006  2.74
   5870.84    6.996  2.74
   5873.58    7.003  2.74
   5876.32    7.012  2.74
   5879.06    7.003  2.74
   5881.80    7.005  2.74
   5884.54    7.021  2.74
   5887.28    7.048  2.74
   5890.02    7.086  2.74
   5892.76    7.094  2.74
   5895.50    7.082  2.74
   5898.24    7.039  2.74
   5900.98    7.005  2.74
   5903.72    6.999  2.74
   5906.46    6.993  2.74
   5909.20    6.988  2.74
   5911.94    6.985  2.74
   5914.68    6.984  2.74
   5917.42    6.978  2.74
   5920.16    6.973  2.74
   5922.90    6.977  2.74
   5925.64    6.979  2.74
   5928.38    6.976  2.74
   5931.12    6.973  2.74
   5933.86    6.968  2.74
   5936.60    6.972  2.74
   5939.34    6.977  2.74
   5942.08    6.973  2.74
   5944.82    6.966  2.74
   5947.56    6.959  2.74
   5950.30    6.957  2.74
   5953.04    6.964  2.74
   5955.78    6.967  2.74
   5958.52    6.970  2.74
   5961.26    6.972  2.74
   5964.00    6.971  2.74
   5966.74    6.961  2.74
   5969.48    6.953  2.74
   5972.22    6.947  2.74
   5974.96    6.944  2.74
   5977.70    6.944  2.74
   5980.44    6.947  2.74
   5983.18    6.949  2.74
   5985.92    6.944  2.74
   5988.66    6.940  2.74
   5991.40    6.950  2.74
   5994.14    6.947  2.74
   5996.88    6.922  2.74
   5999.62    6.920  2.74
   6002.36    6.931  2.74
   6005.10    6.936  2.74
   6007.84    6.940  2.74
   6010.58    6.941  2.74
   6013.32    6.941  2.74
   6016.06    6.941  2.74
   6018.80    6.942  2.74
   6021.54    6.946  2.74
   6024.28    6.941  2.74
   6027.02    6.932  2.74
   6029.76    6.924  2.74
   6032.50    6.918  2.74
   6035.24    6.912  2.74
   6037.98    6.909  2.74
   6040.72    6.911  2.74
   6043.46    6.914  2.74
   6046.20    6.919  2.74
   6048.94    6.920  2.74
   6051.68    6.917  2.74
   6054.42    6.913  2.74
   6057.16    6.910  2.74
   6059.90    6.912  2.74
   6062.64    6.904  2.74
   6065.38    6.884  2.74
   6068.12    6.889  2.74
   6070.86    6.904  2.74
   6073.60    6.902  2.74
   6076.34    6.896  2.74
   6079.08    6.887  2.74
   6081.82    6.884  2.74
   6084.56    6.888  2.74
   6087.30    6.890  2.74
   6090.04    6.891  2.74
   6092.78    6.891  2.74
   6095.52    6.891  2.74
   6098.26    6.891  2.74
   6101.00    6.892  2.74
   6103.74    6.896  2.74
   6106.48    6.897  2.74
   6109.22    6.894  2.74
   6111.96    6.894  2.74
   6114.70    6.894  2.74
   6117.44    6.895  2.74
   6120.18    6.894  2.74
   6122.92    6.888  2.74
   6125.66    6.882  2.74
   6128.40    6.878  2.74
   6131.14    6.878  2.74
   6133.88    6.884  2.74
   6136.62    6.886  2.74
   6139.36    6.888  2.74
   6142.10    6.886  2.74
   6144.84    6.884  2.74
   6147.58    6.877  2.74
   6150.32    6.874  2.74
   6153.06    6.873  2.74
   6155.80    6.878  2.74
   6158.54    6.886  2.74
   6161.28    6.886  2.74
   6164.02    6.883  2.74
   6166.76    6.875  2.74
   6169.50    6.872  2.74
   6172.24    6.881  2.74
   6174.98    6.882  2.74
   6177.72    6.877  2.74
   6180.46    6.864  2.74
   6183.20    6.851  2.74
   6185.94    6.856  2.74
   6188.68    6.864  2.74
   6191.42    6.868  2.74
   6194.16    6.866  2.74
   6196.90    6.855  2.74
   6199.64    6.849  2.74
   6202.38    6.846  2.74
   6205.12    6.852  2.74
   6207.86    6.860  2.74
   6210.60    6.863  2.74
   6213.34    6.858  2.74
   6216.08    6.835  2.74
   6218.82    6.830  2.74
   6221.56    6.841  2.74
   6224.30    6.843  2.74
   6227.04    6.843  2.74
   6229.78    6.844  2.74
   6232.52    6.842  2.74
   6235.26    6.832  2.74
   6238.00    6.830  2.74
   6240.74    6.839  2.74
   6243.48    6.841  2.74
   6246.22    6.840  2.74
   6248.96    6.847  2.74
   6251.70    6.853  2.74
   6254.44    6.848  2.74
   6257.18    6.840  2.74
   6259.92    6.832  2.74
   6262.66    6.830  2.74
   6265.40    6.833  2.74
   6268.14    6.833  2.74
   6270.88    6.831  2.74
   6273.62    6.827  2.74
   6276.36    6.827  2.74
   6279.10    6.840  2.74
   6281.84    6.844  2.74
   6284.58    6.837  2.74
   6287.32    6.825  2.74
   6290.06    6.808  2.74
   6292.80    6.808  2.74
   6295.54    6.813  2.74
   6298.28    6.813  2.74
   6301.02    6.809  2.74
   6303.76    6.799  2.74
   6306.50    6.797  2.74
   6309.24    6.803  2.74
   6311.98    6.808  2.74
   6314.72    6.813  2.74
   6317.46    6.812  2.74
   6320.20    6.807  2.74
   6322.94    6.800  2.74
   6325.68    6.795  2.74
   6328.42    6.790  2.74
   6331.16    6.800  2.74
   6333.90    6.823  2.74
   6336.64    6.817  2.74
   6339.38    6.801  2.74
   6342.12    6.795  2.74
   6344.86    6.790  2.74
   6347.60    6.784  2.74
   6350.34    6.782  2.74
   6353.08    6.782  2.74
   6355.82    6.781  2.74
   6358.56    6.780  2.74
   6361.30    6.778  2.74
   6364.04    6.777  2.74
   6366.78    6.779  2.74
   6369.52    6.776  2.74
   6372.26    6.763  2.74
   6375.00    6.758  2.74
   6377.74    6.758  2.74
   6380.48    6.758  2.74
   6383.22    6.759  2.74
   6385.96    6.757  2.74
   6388.70    6.757  2.74
   6391.44    6.762  2.74
   6394.18    6.765  2.74
   6396.92    6.763  2.74
   6399.66    6.761  2.74
   6402.40    6.757  2.74
   6405.14    6.758  2.74
   6407.88    6.758  2.74
   6410.62    6.754  2.74
   6413.36    6.751  2.74
   6416.10    6.747  2.74
   6418.84    6.748  2.74
   6421.58    6.753  2.74
   6424.32    6.751  2.74
   6427.06    6.748  2.74
   6429.80    6.748  2.74
   6432.54    6.749  2.74
   6435.28    6.748  2.74
   6438.02    6.746  2.74
   6440.76    6.746  2.74
   6443.50    6.743  2.74
   6446.24    6.737  2.74
   6448.98    6.739  2.74
   6451.72    6.742  2.74
   6454.46    6.739  2.74
   6457.20    6.738  2.74
   6459.94    6.745  2.74
   6462.68    6.744  2.74
   6465.42    6.735  2.74
   6468.16    6.730  2.74
   6470.90    6.728  2.74
   6473.64    6.730  2.74
   6476.38    6.730  2.74
   6479.12    6.726  2.74
   6481.86    6.722  2.74
   6484.60    6.717  2.74
   6487.34    6.716  2.74
   6490.08    6.719  2.74
   6492.82    6.739  2.74
   6495.56    6.756  2.74
   6498.30    6.743  2.74
   6501.04    6.725  2.74
   6503.78    6.707  2.74
   6506.52    6.698  2.74
   6509.26    6.699  2.74
   6512.00    6.696  2.74
   6514.74    6.693  2.74
   6517.48    6.699  2.74
   6520.22    6.704  2.74
   6522.96    6.705  2.74
   6525.70    6.704  2.74
   6528.44    6.699  2.74
   6531.18    6.695  2.74
   6533.92    6.691  2.74
   6536.66    6.688  2.74
   6539.40    6.686  2.74
   6542.14    6.690  2.74
   6544.88    6.693  2.74
   6547.62    6.691  2.74
   6550.36    6.691  2.74
   6553.10    6.694  2.74
   6555.84    6.705  2.74
   6558.58    6.722  2.74
   6561.32    6.752  2.74
   6564.06    6.768  2.74
   6566.80    6.731  2.74
   6569.54    6.699  2.74
   6572.28    6.675  2.74
   6575.02    6.667  2.74
   6577.76    6.672  2.74
   6580.50    6.674  2.74
   6583.24    6.675  2.74
   6585.98    6.669  2.74
   6588.72    6.666  2.74
   6591.46    6.672  2.74
   6594.20    6.672  2.74
   6596.94    6.663  2.74
   6599.68    6.656  2.74
   6602.42    6.649  2.74
   6605.16    6.648  2.74
   6607.90    6.650  2.74
   6610.64    6.651  2.74
   6613.38    6.650  2.74
   6616.12    6.649  2.74
   6618.86    6.643  2.74
   6621.60    6.634  2.74
   6624.34    6.639  2.74
   6627.08    6.647  2.74
   6629.82    6.646  2.74
   6632.56    6.643  2.74
   6635.30    6.644  2.74
   6638.04    6.643  2.74
   6640.78    6.642  2.74
   6643.52    6.638  2.74
   6646.26    6.631  2.74
   6649.00    6.634  2.74
   6651.74    6.638  2.74
   6654.48    6.629  2.74
   6657.22    6.623  2.74
   6659.96    6.626  2.74
   6662.70    6.631  2.74
   6665.44    6.638  2.74
   6668.18    6.633  2.74
   6670.92    6.626  2.74
   6673.66    6.628  2.74
   6676.40    6.631  2.74
   6679.14    6.630  2.74
   6681.88    6.627  2.74
   6684.62    6.619  2.74
   6687.36    6.618  2.74
   6690.10    6.621  2.74
   6692.84    6.612  2.74
   6695.58    6.603  2.74
   6698.32    6.606  2.74
   6701.06    6.610  2.74
   6703.80    6.613  2.74
   6706.54    6.615  2.74
   6709.28    6.615  2.74
   6712.02    6.613  2.74
   6714.76    6.610  2.74
   6717.50    6.607  2.74
   6720.24    6.604  2.74
   6722.98    6.606  2.74
   6725.72    6.606  2.74
   6728.46    6.602  2.74
   6731.20    6.600  2.74
   6733.94    6.599  2.74
   6736.68    6.597  2.74
   6739.42    6.595  2.74
   6742.16    6.599  2.74
   6744.90    6.599  2.74
   6747.64    6.592  2.74
   6750.38    6.589  2.74
   6753.12    6.590  2.74
   6755.86    6.589  2.74
   6758.60    6.588  2.74
   6761.34    6.586  2.74
   6764.08    6.586  2.74
   6766.82    6.590  2.74
   6769.56    6.590  2.74
   6772.30    6.583  2.74
   6775.04    6.583  2.74
   6777.78    6.588  2.74
   6780.52    6.588  2.74
   6783.26    6.587  2.74
   6786.00    6.591  2.74
   6788.74    6.592  2.74
   6791.48    6.585  2.74
   6794.22    6.584  2.74
   6796.96    6.591  2.74
   6799.70    6.589  2.74
   6802.44    6.583  2.74
   6805.18    6.576  2.74
   6807.92    6.570  2.74
   6810.66    6.569  2.74
   6813.40    6.572  2.74
   6816.14    6.583  2.74
   6818.88    6.582  2.74
   6821.62    6.573  2.74
   6824.36    6.568  2.74
   6827.10    6.565  2.74
   6829.84    6.564  2.74
   6832.58    6.566  2.74
   6835.32    6.570  2.74
   6838.06    6.574  2.74
   6840.80    6.578  2.74
   6843.54    6.576  2.74
   6846.28    6.570  2.74
   6849.02    6.561  2.74
   6851.76    6.553  2.74
   6854.50    6.558  2.74
   6857.24    6.563  2.74
   6859.98    6.568  2.74
   6862.72    6.565  2.74
   6865.46    6.555  2.74
   6868.20    6.553  2.74
   6870.94    6.555  2.74
   6873.68    6.553  2.74
   6876.42    6.553  2.74
   6879.16    6.558  2.74
   6881.90    6.556  2.74
   6884.64    6.546  2.74
   6887.38    6.544  2.74
   6890.12    6.546  2.74
   6892.86    6.529  2.74
   6895.60    6.516  2.74
   6898.34    6.537  2.74
   6901.08    6.553  2.74
   6903.82    6.551  2.74
   6906.56    6.548  2.74
   6909.30    6.542  2.74
   6912.04    6.540  2.74
   6914.78    6.539  2.74
   6917.52    6.539  2.74
   6920.26    6.538  2.74
   6923.00    6.535  2.74
   6925.74    6.533  2.74
   6928.48    6.534  2.74
   6931.22    6.533  2.74
   6933.96    6.529  2.74
   6936.70    6.529  2.74
   6939.44    6.531  2.74
   6942.18    6.539  2.74
   6944.92    6.541  2.74
   6947.66    6.525  2.74
   6950.40    6.518  2.74
   6953.14    6.520  2.74
   6955.88    6.521  2.74
   6958.62    6.523  2.74
   6961.36    6.527  2.74
   6964.10    6.529  2.74
   6966.84    6.521  2.74
   6969.58    6.519  2.74
   6972.32    6.529  2.74
   6975.06    6.529  2.74
   6977.80    6.523  2.74
   6980.54    6.518  2.74
   6983.28    6.512  2.74
   6986.02    6.504  2.74
   6988.76    6.501  2.74
   6991.50    6.510  2.74
   6994.24    6.511  2.74
   6996.98    6.504  2.74
   6999.72    6.499  2.74
   7002.46    6.495  2.74
   7005.20    6.496  2.74
   7007.94    6.499  2.74
   7010.68    6.504  2.74
   7013.42    6.505  2.74
   7016.16    6.496  2.74
   7018.90    6.495  2.74
   7021.64    6.498  2.74
   7024.38    6.497  2.74
   7027.12    6.494  2.74
   7029.86    6.491  2.74
   7032.60    6.488  2.74
   7035.34    6.487  2.74
   7038.08    6.488  2.74
   7040.82    6.493  2.74
   7043.56    6.490  2.74
   7046.30    6.482  2.74
   7049.04    6.481  2.74
   7051.78    6.482  2.74
   7054.52    6.481  2.74
   7057.26    6.481  2.74
   7060.00    6.482  2.74
   7062.74    6.481  2.74
   7065.48    6.477  2.74
   7068.22    6.479  2.74
   7070.96    6.482  2.74
   7073.70    6.472  2.74
   7076.44    6.465  2.74
   7079.18    6.472  2.74
   7081.92    6.476  2.74
   7084.66    6.481  2.74
   7087.40    6.478  2.74
   7090.14    6.471  2.74
   7092.88    6.468  2.74
   7095.62    6.466  2.74
   7098.36    6.464  2.74
   7101.10    6.463  2.74
   7103.84    6.464  2.74
   7106.58    6.465  2.74
   7109.32    6.465  2.74
   7112.06    6.468  2.74
   7114.80    6.472  2.74
   7117.54    6.471  2.74
   7120.28    6.469  2.74
   7123.02    6.470  2.74
   7125.76    6.467  2.74
   7128.50    6.458  2.74
   7131.24    6.456  2.74
   7133.98    6.456  2.74
   7136.72    6.452  2.74
   7139.46    6.448  2.74
   7142.20    6.449  2.74
   7144.94    6.452  2.74
   7147.68    6.456  2.74
   7150.42    6.455  2.74
   7153.16    6.450  2.74
   7155.90    6.452  2.74
   7158.64    6.456  2.74
   7161.38    6.453  2.74
   7164.12    6.449  2.74
   7166.86    6.452  2.74
   7169.60    6.444  2.74
   7172.34    6.413  2.74
   7175.08    6.417  2.74
   7177.82    6.442  2.74
   7180.56    6.444  2.74
   7183.30    6.441  2.74
   7186.04    6.440  2.74
   7188.78    6.448  2.74
   7191.52    6.478  2.74
   7194.26    6.479  2.74
   7197.00    6.446  2.74
   7199.74    6.443  2.74
   7202.48    6.451  2.74
   7205.22    6.442  2.74
   7207.96    6.433  2.74
   7210.70    6.438  2.74
   7213.44    6.440  2.74
   7216.18    6.434  2.74
   7218.92    6.435  2.74
   7221.66    6.442  2.74
   7224.40    6.437  2.74
   7227.14    6.429  2.74
   7229.88    6.421  2.74
   7232.62    6.417  2.74
   7235.36    6.422  2.74
   7238.10    6.423  2.74
   7240.84    6.422  2.74
   7243.58    6.420  2.74
   7246.32    6.417  2.74
   7249.06    6.424  2.74
   7251.80    6.429  2.74
   7254.54    6.420  2.74
   7257.28    6.412  2.74
   7260.02    6.411  2.74
   7262.76    6.411  2.74
   7265.50    6.414  2.74
   7268.24    6.414  2.74
   7270.98    6.412  2.74
   7273.72    6.408  2.74
   7276.46    6.405  2.74
   7279.20    6.406  2.74
   7281.94    6.406  2.74
   7284.68    6.405  2.74
   7287.42    6.402  2.74
   7290.16    6.399  2.74
   7292.90    6.403  2.74
   7295.64    6.405  2.74
   7298.38    6.397  2.74
   7301.12    6.394  2.74
   7303.86    6.402  2.74
   7306.60    6.406  2.74
   7309.34    6.408  2.74
   7312.08    6.408  2.74
   7314.82    6.405  2.74
   7317.56    6.397  2.74
   7320.30    6.391  2.74
   7323.04    6.391  2.74
   7325.78    6.390  2.74
   7328.52    6.389  2.74
   7331.26    6.389  2.74
   7334.00    6.390  2.74
   7336.74    6.390  2.74
   7339.48    6.389  2.74
   7342.22    6.389  2.74
   7344.96    6.390  2.74
   7347.70    6.395  2.74
   7350.44    6.394  2.74
   7353.18    6.386  2.74
   7355.92    6.384  2.74
   7358.66    6.384  2.74
   7361.40    6.384  2.74
   7364.14    6.387  2.74
   7366.88    6.394  2.74
   7369.62    6.393  2.74
   7372.36    6.380  2.74
   7375.10    6.373  2.74
   7377.84    6.369  2.74
   7380.58    6.372  2.74
   7383.32    6.377  2.74
   7386.06    6.373  2.74
   7388.80    6.370  2.74
   7391.54    6.369  2.74
   7394.28    6.371  2.74
   7397.02    6.374  2.74
   7399.76    6.375  2.74
   7402.50    6.375  2.74
   7405.24    6.383  2.74
   7407.98    6.390  2.74
   7410.72    6.384  2.74
   7413.46    6.379  2.74
   7416.20    6.375  2.74
   7418.94    6.372  2.74
   7421.68    6.369  2.74
   7424.42    6.368  2.74
   7427.16    6.367  2.74
   7429.90    6.360  2.74
   7432.64    6.354  2.74
   7435.38    6.349  2.74
   7438.12    6.350  2.74
   7440.86    6.358  2.74
   7443.60    6.360  2.74
   7446.34    6.358  2.74
   7449.08    6.358  2.74
   7451.82    6.357  2.74
   7454.56    6.353  2.74
   7457.30    6.353  2.74
   7460.04    6.357  2.74
   7462.78    6.357  2.74
   7465.52    6.355  2.74
   7468.26    6.354  2.74
   7471.00    6.353  2.74
   7473.74    6.357  2.74
   7476.48    6.359  2.74
   7479.22    6.353  2.74
   7481.96    6.351  2.74
   7484.70    6.358  2.74
   7487.44    6.356  2.74
   7490.18    6.351  2.74
   7492.92    6.349  2.74
   7495.66    6.349  2.74
   7498.40    6.354  2.74
   7501.14    6.357  2.74
   7503.88    6.355  2.74
   7506.62    6.353  2.74
   7509.36    6.350  2.74
   7512.10    6.347  2.74
   7514.84    6.345  2.74
   7517.58    6.345  2.74
   7520.32    6.346  2.74
   7523.06    6.347  2.74
   7525.80    6.346  2.74
   7528.54    6.343  2.74
   7531.28    6.339  2.74
   7534.02    6.336  2.74
   7536.76    6.330  2.74
   7539.50    6.325  2.74
   7542.24    6.325  2.74
   7544.98    6.327  2.74
   7547.72    6.334  2.74
   7550.46    6.334  2.74
   7553.20    6.329  2.74
   7555.94    6.337  2.74
   7558.68    6.348  2.74
   7561.42    6.346  2.74
   7564.16    6.342  2.74
   7566.90    6.338  2.74
   7569.64    6.334  2.74
   7572.38    6.329  2.74
   7575.12    6.326  2.74
   7577.86    6.325  2.74
   7580.60    6.332  2.74
   7583.34    6.337  2.74
   7586.08    6.329  2.74
   7588.82    6.321  2.74
   7591.56    6.315  2.74
   7594.30    6.314  2.74
   7597.04    6.320  2.74
   7599.78    6.320  2.74
   7602.52    6.319  2.74
   7605.26    6.316  2.74
   7608.00    6.316  2.74
   7610.74    6.326  2.74
   7613.48    6.331  2.74
   7616.22    6.328  2.74
   7618.96    6.324  2.74
   7621.70    6.317  2.74
   7624.44    6.316  2.74
   7627.18    6.316  2.74
   7629.92    6.312  2.74
   7632.66    6.311  2.74
   7635.40    6.318  2.74
   7638.14    6.318  2.74
   7640.88    6.311  2.74
   7643.62    6.310  2.74
   7646.36    6.313  2.74
   7649.10    6.317  2.74
   7651.84    6.320  2.74
   7654.58    6.318  2.74
   7657.32    6.318  2.74
   7660.06    6.323  2.74
   7662.80    6.328  2.74
   7665.54    6.335  2.74
   7668.28    6.329  2.74
   7671.02    6.318  2.74
   7673.76    6.308  2.74
   7676.50    6.300  2.74
   7679.24    6.297  2.74
   7681.98    6.298  2.74
   7684.72    6.305  2.74
   7687.46    6.306  2.74
   7690.20    6.305  2.74
   7692.94    6.310  2.74
   7695.68    6.316  2.74
   7698.42    6.323  2.74
   7701.16    6.324  2.74
   7703.90    6.311  2.74
   7706.64    6.306  2.74
   7709.38    6.306  2.74
   7712.12    6.306  2.74
   7714.86    6.304  2.74
   7717.60    6.295  2.74
   7720.34    6.287  2.74
   7723.08    6.284  2.74
   7725.82    6.285  2.74
   7728.56    6.290  2.74
   7731.30    6.305  2.74
   7734.04    6.325  2.74
   7736.78    6.315  2.74
   7739.52    6.299  2.74
   7742.26    6.302  2.74
   7745.00    6.306  2.74
   7747.74    6.309  2.74
   7750.48    6.308  2.74
   7753.22    6.302  2.74
   7755.96    6.296  2.74
   7758.70    6.291  2.74
   7761.44    6.281  2.74
   7764.18    6.273  2.74
   7766.92    6.269  2.74
   7769.66    6.267  2.74
   7772.40    6.267  2.74
   7775.14    6.270  2.74
   7777.88    6.274  2.74
   7780.62    6.280  2.74
   7783.36    6.285  2.74
   7786.10    6.284  2.74
   7788.84    6.281  2.74
   7791.58    6.277  2.74
   7794.32    6.273  2.74
   7797.06    6.271  2.74
   7799.80    6.277  2.74
   7802.54    6.285  2.74
   7805.28    6.279  2.74
   7808.02    6.271  2.74
   7810.76    6.270  2.74
   7813.50    6.267  2.74
   7816.24    6.261  2.74
   7818.98    6.255  2.74
   7821.72    6.248  2.74
   7824.46    6.251  2.74
   7827.20    6.258  2.74
   7829.94    6.265  2.74
   7832.68    6.268  2.74
   7835.42    6.265  2.74
   7838.16    6.261  2.74
   7840.90    6.254  2.74
   7843.64    6.256  2.74
   7846.38    6.262  2.74
   7849.12    6.267  2.74
   7851.86    6.269  2.74
   7854.60    6.269  2.74
   7857.34    6.267  2.74
   7860.08    6.262  2.74
   7862.82    6.263  2.74
   7865.56    6.268  2.74
   7868.30    6.267  2.74
   7871.04    6.265  2.74
   7873.78    6.270  2.74
   7876.52    6.272  2.74
   7879.26    6.271  2.74
   7882.00    6.264  2.74
   7884.74    6.249  2.74
   7887.48    6.241  2.74
   7890.22    6.238  2.74
   7892.96    6.241  2.74
   7895.70    6.245  2.74
   7898.44    6.247  2.74
   7901.18    6.247  2.74
   7903.92    6.243  2.74
   7906.66    6.247  2.74
   7909.40    6.256  2.74
   7912.14    6.259  2.74
   7914.88    6.259  2.74
   7917.62    6.258  2.74
   7920.36    6.256  2.74
   7923.10    6.251  2.74
   7925.84    6.249  2.74
   7928.58    6.249  2.74
   7931.32    6.246  2.74
   7934.06    6.240  2.74
   7936.80    6.238  2.74
   7939.54    6.238  2.74
   7942.28    6.249  2.74
   7945.02    6.243  2.74
   7947.76    6.200  2.74
   7950.50    6.200  2.74
   7953.24    6.233  2.74
   7955.98    6.234  2.74
   7958.72    6.225  2.74
   7961.46    6.230  2.74
   7964.20    6.235  2.74
   7966.94    6.238  2.74
   7969.68    6.237  2.74
   7972.42    6.228  2.74
   7975.16    6.229  2.74
   7977.90    6.234  2.74
   7980.64    6.232  2.74
   7983.38    6.228  2.74
   7986.12    6.217  2.74
   7988.86    6.211  2.74
   7991.60    6.213  2.74
   7994.34    6.215  2.74
   7997.08    6.219  2.74
   7999.82    6.218  2.74
   8002.56    6.217  2.74
   8005.30    6.223  2.74
   8008.04    6.227  2.74
   8010.78    6.221  2.74
   8013.52    6.218  2.74
   8016.26    6.220  2.74
   8019.00    6.222  2.74
   8021.74    6.223  2.74
   8024.48    6.227  2.74
   8027.22    6.229  2.74
   8029.96    6.222  2.74
   8032.70    6.216  2.74
   8035.44    6.213  2.74
   8038.18    6.215  2.74
   8040.92    6.224  2.74
   8043.66    6.225  2.74
   8046.40    6.222  2.74
   8049.14    6.211  2.74
   8051.88    6.201  2.74
   8054.62    6.199  2.74
   8057.36    6.200  2.74
   8060.10    6.209  2.74
   8062.84    6.208  2.74
   8065.58    6.200  2.74
   8068.32    6.197  2.74
   8071.06    6.195  2.74
   8073.80    6.196  2.74
   8076.54    6.196  2.74
   8079.28    6.194  2.74
   8082.02    6.197  2.74
   8084.76    6.209  2.74
   8087.50    6.212  2.74
   8090.24    6.211  2.74
   8092.98    6.202  2.74
   8095.72    6.194  2.74
   8098.46    6.195  2.74
   8101.20    6.196  2.74
   8103.94    6.196  2.74
   8106.68    6.192  2.74
   8109.42    6.185  2.74
   8112.16    6.187  2.74
   8114.90    6.192  2.74
   8117.64    6.192  2.74
   8120.38    6.192  2.74
   8123.12    6.191  2.74
   8125.86    6.192  2.74
   8128.60    6.194  2.74
   8131.34    6.193  2.74
   8134.08    6.191  2.74
   8136.82    6.189  2.74
   8139.56    6.187  2.74
   8142.30    6.184  2.74
   8145.04    6.182  2.74
   8147.78    6.181  2.74
   8150.52    6.182  2.74
   8153.26    6.185  2.74
   8156.00    6.186  2.74
   8158.74    6.184  2.74
   8161.48    6.173  2.74
   8164.22    6.166  2.74
   8166.96    6.170  2.74
   8169.70    6.173  2.74
   8172.44    6.175  2.74
   8175.18    6.179  2.74
   8177.92    6.184  2.74
   8180.66    6.185  2.74
   8183.40    6.184  2.74
   8186.14    6.182  2.74
   8188.88    6.183  2.74
   8191.62    6.189  2.74
   8194.36    6.189  2.74
   8197.10    6.186  2.74
   8199.84    6.180  2.74
   8202.58    6.172  2.74
   8205.32    6.173  2.74
   8208.06    6.175  2.74
   8210.80    6.172  2.74
   8213.54    6.175  2.74
   8216.28    6.188  2.74
   8219.02    6.184  2.74
   8221.76    6.171  2.74
   8224.50    6.166  2.74
   8227.24    6.162  2.74
   8229.98    6.157  2.74
   8232.72    6.155  2.74
   8235.46    6.156  2.74
   8238.20    6.166  2.74
   8240.94    6.188  2.74
   8243.68    6.186  2.74
   8246.42    6.175  2.74
   8249.16    6.174  2.74
   8251.90    6.174  2.74
   8254.64    6.176  2.74
   8257.38    6.173  2.74
   8260.12    6.164  2.74
   8262.86    6.161  2.74
   8265.60    6.162  2.74
   8268.34    6.157  2.74
   8271.08    6.151  2.74
   8273.82    6.150  2.74
   8276.56    6.154  2.74
   8279.30    6.171  2.74
   8282.04    6.172  2.74
   8284.78    6.156  2.74
   8287.52    6.163  2.74
   8290.26    6.177  2.74
   8293.00    6.174  2.74
   8295.74    6.170  2.74
   8298.48    6.175  2.74
   8301.22    6.177  2.74
   8303.96    6.176  2.74
   8306.70    6.172  2.74
   8309.44    6.164  2.74
   8312.18    6.162  2.74
   8314.92    6.162  2.74
   8317.66    6.156  2.74
   8320.40    6.155  2.74
   8323.14    6.166  2.74
   8325.88    6.169  2.74
   8328.62    6.162  2.74
   8331.36    6.157  2.74
   8334.10    6.152  2.74
   8336.84    6.149  2.74
   8339.58    6.147  2.74
   8342.32    6.148  2.74
   8345.06    6.149  2.74
   8347.80    6.153  2.74
   8350.54    6.150  2.74
   8353.28    6.142  2.74
   8356.02    6.143  2.74
   8358.76    6.148  2.74
   8361.50    6.156  2.74
   8364.24    6.162  2.74
   8366.98    6.161  2.74
   8369.72    6.160  2.74
   8372.46    6.161  2.74
   8375.20    6.155  2.74
   8377.94    6.147  2.74
   8380.68    6.146  2.74
   8383.42    6.147  2.74
   8386.16    6.148  2.74
   8388.90    6.147  2.74
   8391.64    6.145  2.74
   8394.38    6.141  2.74
   8397.12    6.135  2.74
   8399.86    6.136  2.74
   8402.60    6.138  2.74
   8405.34    6.132  2.74
   8408.08    6.129  2.74
   8410.82    6.138  2.74
   8413.56    6.144  2.74
   8416.30    6.146  2.74
   8419.04    6.144  2.74
   8421.78    6.139  2.74
   8424.52    6.136  2.74
   8427.26    6.132  2.74
   8430.00    6.124  2.74
   8432.74    6.121  2.74
   8435.48    6.128  2.74
   8438.22    6.125  2.74
   8440.96    6.112  2.74
   8443.70    6.117  2.74
   8446.44    6.127  2.74
   8449.18    6.124  2.74
   8451.92    6.119  2.74
   8454.66    6.118  2.74
   8457.40    6.115  2.74
   8460.14    6.103  2.74
   8462.88    6.109  2.74
   8465.62    6.126  2.74
   8468.36    6.128  2.74
   8471.10    6.127  2.74
   8473.84    6.131  2.74
   8476.58    6.133  2.74
   8479.32    6.134  2.74
   8482.06    6.134  2.74
   8484.80    6.135  2.74
   8487.54    6.139  2.74
   8490.28    6.147  2.74
   8493.02    6.160  2.74
   8495.76    6.169  2.74
   8498.50    6.165  2.74
   8501.24    6.153  2.74
   8503.98    6.129  2.74
   8506.72    6.115  2.74
   8509.46    6.108  2.74
   8512.20    6.105  2.74
   8514.94    6.104  2.74
   8517.68    6.101  2.74
   8520.42    6.102  2.74
   8523.16    6.113  2.74
   8525.90    6.121  2.74
   8528.64    6.126  2.74
   8531.38    6.136  2.74
   8534.12    6.154  2.74
   8536.86    6.208  2.74
   8539.60    6.258  2.74
   8542.34    6.267  2.74
   8545.08    6.242  2.74
   8547.82    6.166  2.74
   8550.56    6.131  2.74
   8553.30    6.117  2.74
   8556.04    6.118  2.74
   8558.78    6.126  2.74
   8561.52    6.118  2.74
   8564.26    6.108  2.74
   8567.00    6.097  2.74
   8569.74    6.092  2.74
   8572.48    6.094  2.74
   8575.22    6.099  2.74
   8577.96    6.106  2.74
   8580.70    6.101  2.74
   8583.44    6.095  2.74
   8586.18    6.093  2.74
   8588.92    6.093  2.74
   8591.66    6.100  2.74
   8594.40    6.095  2.74
   8597.14    6.081  2.74
   8599.88    6.084  2.74
   8602.62    6.092  2.74
   8605.36    6.089  2.74
   8608.10    6.085  2.74
   8610.84    6.084  2.74
   8613.58    6.081  2.74
   8616.32    6.076  2.74
   8619.06    6.076  2.74
   8621.80    6.078  2.74
   8624.54    6.081  2.74
   8627.28    6.084  2.74
   8630.02    6.089  2.74
   8632.76    6.092  2.74
   8635.50    6.087  2.74
   8638.24    6.088  2.74
   8640.98    6.093  2.74
   8643.72    6.094  2.74
   8646.46    6.094  2.74
   8649.20    6.094  2.74
   8651.94    6.103  2.74
   8654.68    6.131  2.74
   8657.42    6.162  2.74
   8660.16    6.207  2.74
   8662.90    6.200  2.74
   8665.64    6.160  2.74
   8668.38    6.122  2.74
   8671.12    6.088  2.74
   8673.86    6.075  2.74
   8676.60    6.067  2.74
   8679.34    6.062  2.74
   8682.08    6.065  2.74
   8684.82    6.078  2.74
   8687.56    6.077  2.74
   8690.30    6.072  2.74
   8693.04    6.076  2.74
   8695.78    6.080  2.74
   8698.52    6.082  2.74
   8701.26    6.081  2.74
   8704.00    6.076  2.74
   8706.74    6.069  2.74
   8709.48    6.060  2.74
   8712.22    6.061  2.74
   8714.96    6.066  2.74
   8717.70    6.065  2.74
   8720.44    6.063  2.74
   8723.18    6.058  2.74
   8725.92    6.057  2.74
   8728.66    6.060  2.74
   8731.40    6.059  2.74
   8734.14    6.056  2.74
   8736.88    6.047  2.74
   8739.62    6.040  2.74
   8742.36    6.044  2.74
   8745.10    6.049  2.74
   8747.84    6.057  2.74
   8750.58    6.063  2.74
   8753.32    6.069  2.74
   8756.06    6.073  2.74
   8758.80    6.074  2.74
   8761.54    6.069  2.74
   8764.28    6.062  2.74
   8767.02    6.052  2.74
   8769.76    6.047  2.74
   8772.50    6.047  2.74
   8775.24    6.050  2.74
   8777.98    6.056  2.74
   8780.72    6.061  2.74
   8783.46    6.062  2.74
   8786.20    6.058  2.74
   8788.94    6.055  2.74
   8791.68    6.058  2.74
   8794.42    6.053  2.74
   8797.16    6.040  2.74
   8799.90    6.041  2.74
   8802.64    6.048  2.74
   8805.38    6.058  2.74
   8808.12    6.066  2.74
   8810.86    6.066  2.74
   8813.60    6.063  2.74
   8816.34    6.057  2.74
   8819.08    6.062  2.74
   8821.82    6.072  2.74
   8824.56    6.065  2.74
   8827.30    6.055  2.74
   8830.04    6.052  2.74
   8832.78    6.047  2.74
   8835.52    6.036  2.74
   8838.26    6.033  2.74
   8841.00    6.038  2.74
   8843.74    6.042  2.74
   8846.48    6.047  2.74
   8849.22    6.054  2.74
   8851.96    6.056  2.74
   8854.70    6.046  2.74
   8857.44    6.041  2.74
   8860.18    6.041  2.74
   8862.92    6.043  2.74
   8865.66    6.046  2.74
   8868.40    6.042  2.74
   8871.14    6.035  2.74
   8873.88    6.031  2.74
   8876.62    6.030  2.74
   8879.36    6.033  2.74
   8882.10    6.036  2.74
   8884.84    6.039  2.74
   8887.58    6.042  2.74
   8890.32    6.044  2.74
   8893.06    6.037  2.74
   8895.80    6.033  2.74
   8898.54    6.039  2.74
   8901.28    6.039  2.74
   8904.02    6.031  2.74
   8906.76    6.024  2.74
   8909.50    6.016  2.74
   8912.24    6.013  2.74
   8914.98    6.011  2.74
   8917.72    6.006  2.74
   8920.46    6.006  2.74
   8923.20    6.013  2.74
   8925.94    6.017  2.74
   8928.68    6.018  2.74
   8931.42    6.021  2.74
   8934.16    6.025  2.74
   8936.90    6.025  2.74
   8939.64    6.026  2.74
   8942.38    6.036  2.74
   8945.12    6.041  2.74
   8947.86    6.037  2.74
   8950.60    6.031  2.74
   8953.34    6.021  2.74
   8956.08    6.014  2.74
   8958.82    6.009  2.74
   8961.56    6.007  2.74
   8964.30    6.008  2.74
   8967.04    6.018  2.74
   8969.78    6.012  2.74
   8972.52    5.984  2.74
   8975.26    5.994  2.74
   8978.00    6.020  2.74
   8980.74    6.023  2.74
   8983.48    6.019  2.74
   8986.22    6.007  2.74
   8988.96    6.000  2.74
   8991.70    6.003  2.74
   8994.44    6.008  2.74
   8997.18    6.016  2.74
   8999.92    6.019  2.74
   9002.66    6.021  2.74
   9005.40    6.021  2.74
   9008.14    6.019  2.74
   9010.88    6.013  2.74
   9013.62    6.010  2.74
   9016.36    6.011  2.74
   9019.10    5.998  2.74
   9021.84    5.981  2.74
   9024.58    5.998  2.74
   9027.32    6.018  2.74
   9030.06    6.010  2.74
   9032.80    6.003  2.74
   9035.54    5.997  2.74
   9038.28    5.993  2.74
   9041.02    5.990  2.74
   9043.76    5.994  2.74
   9046.50    6.001  2.74
   9049.24    5.999  2.74
   9051.98    5.997  2.74
   9054.72    5.999  2.74
   9057.46    5.998  2.74
   9060.20    5.990  2.74
   9062.94    5.995  2.74
   9065.68    6.005  2.74
   9068.42    6.002  2.74
   9071.16    5.996  2.74
   9073.90    5.994  2.74
   9076.64    5.992  2.74
   9079.38    5.985  2.74
   9082.12    5.987  2.74
   9084.86    5.996  2.74
   9087.60    6.001  2.74
   9090.34    6.004  2.74
   9093.08    6.006  2.74
   9095.82    6.004  2.74
   9098.56    5.989  2.74
   9101.30    5.982  2.74
   9104.04    5.988  2.74
   9106.78    5.991  2.74
   9109.52    5.995  2.74
   9112.26    5.992  2.74
   9115.00    5.986  2.74
   9117.74    5.984  2.74
   9120.48    5.981  2.74
   9123.22    5.974  2.74
   9125.96    5.974  2.74
   9128.70    5.980  2.74
   9131.44    5.976  2.74
   9134.18    5.969  2.74
   9136.92    5.967  2.74
   9139.66    5.971  2.74
   9142.40    5.987  2.74
   9145.14    5.997  2.74
   9147.88    6.002  2.74
   9150.62    6.005  2.74
   9153.36    6.005  2.74
   9156.10    5.998  2.74
   9158.84    5.988  2.74
   9161.58    5.978  2.74
   9164.32    5.971  2.74
   9167.06    5.970  2.74
   9169.80    5.969  2.74
   9172.54    5.969  2.74
   9175.28    5.971  2.74
   9178.02    5.973  2.74
   9180.76    5.967  2.74
   9183.50    5.960  2.74
   9186.24    5.955  2.74
   9188.98    5.957  2.74
   9191.72    5.973  2.74
   9194.46    5.973  2.74
   9197.20    5.963  2.74
   9199.94    5.970  2.74
   9202.68    5.982  2.74
   9205.42    5.988  2.74
   9208.16    5.994  2.74
   9210.90    6.001  2.74
   9213.64    6.000  2.74
   9216.38    5.992  2.74
   9219.12    5.982  2.74
   9221.86    5.972  2.74
   9224.60    5.965  2.74
   9227.34    5.963  2.74
   9230.08    5.968  2.74
   9232.82    5.967  2.74
   9235.56    5.949  2.74
   9238.30    5.955  2.74
   9241.04    5.979  2.74
   9243.78    5.976  2.74
   9246.52    5.964  2.74
   9249.26    5.955  2.74
   9252.00    5.951  2.74
   9254.74    5.959  2.74
   9257.48    5.961  2.74
   9260.22    5.955  2.74
   9262.96    5.957  2.74
   9265.70    5.963  2.74
   9268.44    5.965  2.74
   9271.18    5.968  2.74
   9273.92    5.970  2.74
   9276.66    5.973  2.74
   9279.40    5.978  2.74
   9282.14    5.976  2.74
   9284.88    5.968  2.74
   9287.62    5.965  2.74
   9290.36    5.966  2.74
   9293.10    5.972  2.74
   9295.84    5.978  2.74
   9298.58    5.976  2.74
   9301.32    5.973  2.74
   9304.06    5.968  2.74
   9306.80    5.964  2.74
   9309.54    5.962  2.74
   9312.28    5.963  2.74
   9315.02    5.964  2.74
   9317.76    5.958  2.74
   9320.50    5.952  2.74
   9323.24    5.944  2.74
   9325.98    5.944  2.74
   9328.72    5.953  2.74
   9331.46    5.951  2.74
   9334.20    5.945  2.74
   9336.94    5.945  2.74
   9339.68    5.947  2.74
   9342.42    5.952  2.74
   9345.16    5.954  2.74
   9347.90    5.952  2.74
   9350.64    5.955  2.74
   9353.38    5.961  2.74
   9356.12    5.959  2.74
   9358.86    5.955  2.74
   9361.60    5.950  2.74
   9364.34    5.952  2.74
   9367.08    5.967  2.74
   9369.82    5.976  2.74
   9372.56    5.980  2.74
   9375.30    5.977  2.74
   9378.04    5.970  2.74
   9380.78    5.966  2.74
   9383.52    5.964  2.74
   9386.26    5.968  2.74
   9389.00    5.968  2.74
   9391.74    5.961  2.74
   9394.48    5.958  2.74
   9397.22    5.957  2.74
   9399.96    5.951  2.74
   9402.70    5.943  2.74
   9405.44    5.935  2.74
   9408.18    5.930  2.74
   9410.92    5.931  2.74
   9413.66    5.936  2.74
   9416.40    5.944  2.74
   9419.14    5.946  2.74
   9421.88    5.945  2.74
   9424.62    5.946  2.74
   9427.36    5.947  2.74
   9430.10    5.947  2.74
   9432.84    5.947  2.74
   9435.58    5.947  2.74
   9438.32    5.947  2.74
   9441.06    5.947  2.74
   9443.80    5.950  2.74
   9446.54    5.953  2.74
   9449.28    5.953  2.74
   9452.02    5.951  2.74
   9454.76    5.943  2.74
   9457.50    5.942  2.74
   9460.24    5.950  2.74
   9462.98    5.948  2.74
   9465.72    5.941  2.74
   9468.46    5.949  2.74
   9471.20    5.957  2.74
   9473.94    5.956  2.74
   9476.68    5.953  2.74
   9479.42    5.948  2.74
   9482.16    5.950  2.74
   9484.90    5.957  2.74
   9487.64    5.958  2.74
   9490.38    5.957  2.74
   9493.12    5.960  2.74
   9495.86    5.960  2.74
   9498.60    5.956  2.74
   9501.34    5.950  2.74
   9504.08    5.944  2.74
   9506.82    5.937  2.74
   9509.56    5.929  2.74
   9512.30    5.927  2.74
   9515.04    5.926  2.74
   9517.78    5.925  2.74
   9520.52    5.923  2.74
   9523.26    5.919  2.74
   9526.00    5.918  2.74
   9528.74    5.919  2.74
   9531.48    5.913  2.74
   9534.22    5.908  2.74
   9536.96    5.916  2.74
   9539.70    5.928  2.74
   9542.44    5.940  2.74
   9545.18    5.948  2.74
   9547.92    5.949  2.74
   9550.66    5.951  2.74
   9553.40    5.952  2.74
   9556.14    5.950  2.74
   9558.88    5.948  2.74
   9561.62    5.950  2.74
   9564.36    5.948  2.74
   9567.10    5.938  2.74
   9569.84    5.931  2.74
   9572.58    5.926  2.74
   9575.32    5.929  2.74
   9578.06    5.934  2.74
   9580.80    5.938  2.74
   9583.54    5.940  2.74
   9586.28    5.937  2.74
   9589.02    5.936  2.74
   9591.76    5.942  2.74
   9594.50    5.937  2.74
   9597.24    5.926  2.74
   9599.98    5.928  2.74
   9602.72    5.931  2.74
   9605.46    5.916  2.74
   9608.20    5.904  2.74
   9610.94    5.906  2.74
   9613.68    5.900  2.74
   9616.42    5.886  2.74
   9619.16    5.890  2.74
   9621.90    5.903  2.74
   9624.64    5.906  2.74
   9627.38    5.909  2.74
   9630.12    5.916  2.74
   9632.86    5.924  2.74
   9635.60    5.937  2.74
   9638.34    5.934  2.74
   9641.08    5.922  2.74
   9643.82    5.927  2.74
   9646.56    5.937  2.74
   9649.30    5.939  2.74
   9652.04    5.937  2.74
   9654.78    5.925  2.74
   9657.52    5.921  2.74
   9660.26    5.925  2.74
   9663.00    5.926  2.74
   9665.74    5.927  2.74
   9668.48    5.928  2.74
   9671.22    5.928  2.74
   9673.96    5.927  2.74
   9676.70    5.926  2.74
   9679.44    5.925  2.74
   9682.18    5.924  2.74
   9684.92    5.922  2.74
   9687.66    5.920  2.74
   9690.40    5.918  2.74
   9693.14    5.912  2.74
   9695.88    5.907  2.74
   9698.62    5.906  2.74
   9701.36    5.902  2.74
   9704.10    5.895  2.74
   9706.84    5.898  2.74
   9709.58    5.908  2.74
   9712.32    5.904  2.74
   9715.06    5.902  2.74
   9717.80    5.916  2.74
   9720.54    5.925  2.74
   9723.28    5.926  2.74
   9726.02    5.922  2.74
   9728.76    5.914  2.74
   9731.50    5.915  2.74
   9734.24    5.920  2.74
   9736.98    5.922  2.74
   9739.72    5.918  2.74
   9742.46    5.902  2.74
   9745.20    5.894  2.74
   9747.94    5.898  2.74
   9750.68    5.902  2.74
   9753.42    5.907  2.74
   9756.16    5.911  2.74
   9758.90    5.912  2.74
   9761.64    5.908  2.74
   9764.38    5.906  2.74
   9767.12    5.911  2.74
   9769.86    5.913  2.74
   9772.60    5.910  2.74
   9775.34    5.906  2.74
   9778.08    5.901  2.74
   9780.82    5.901  2.74
   9783.56    5.901  2.74
   9786.30    5.900  2.74
   9789.04    5.898  2.74
   9791.78    5.895  2.74
   9794.52    5.892  2.74
   9797.26    5.888  2.74
   9800.00    5.885  2.74
   9802.74    5.881  2.74
   9805.48    5.878  2.74
   9808.22    5.879  2.74
   9810.96    5.885  2.74
   9813.70    5.891  2.74
   9816.44    5.896  2.74
   9819.18    5.907  2.74
   9821.92    5.916  2.74
   9824.66    5.910  2.74
   9827.40    5.898  2.74
   9830.14    5.880  2.74
   9832.88    5.873  2.74
   9835.62    5.886  2.74
   9838.36    5.888  2.74
   9841.10    5.887  2.74
   9843.84    5.894  2.74
   9846.58    5.900  2.74
   9849.32    5.889  2.74
   9852.06    5.882  2.74
   9854.80    5.890  2.74
   9857.54    5.891  2.74
   9860.28    5.885  2.74
   9863.02    5.880  2.74
   9865.76    5.874  2.74
   9868.50    5.869  2.74
   9871.24    5.867  2.74
   9873.98    5.874  2.74
   9876.72    5.880  2.74
   9879.46    5.886  2.74
   9882.20    5.887  2.74
   9884.94    5.884  2.74
   9887.68    5.890  2.74
   9890.42    5.897  2.74
   9893.16    5.901  2.74
   9895.90    5.901  2.74
   9898.64    5.893  2.74
   9901.38    5.887  2.74
   9904.12    5.885  2.74
   9906.86    5.876  2.74
   9909.60    5.865  2.74
   9912.34    5.870  2.74
   9915.08    5.878  2.74
   9917.82    5.882  2.74
   9920.56    5.881  2.74
   9923.30    5.874  2.74
   9926.04    5.869  2.74
   9928.78    5.867  2.74
   9931.52    5.867  2.74
   9934.26    5.868  2.74
   9937.00    5.869  2.74
   9939.74    5.872  2.74
   9942.48    5.881  2.74
   9945.22    5.880  2.74
   9947.96    5.866  2.74
   9950.70    5.865  2.74
   9953.44    5.869  2.74
   9956.18    5.874  2.74
   9958.92    5.878  2.74
   9961.66    5.870  2.74
   9964.40    5.866  2.74
   9967.14    5.870  2.74
   9969.88    5.874  2.74
   9972.62    5.880  2.74
   9975.36    5.877  2.74
   9978.10    5.872  2.74
   9980.84    5.880  2.74
   9983.58    5.885  2.74
   9986.32    5.880  2.74
   9989.06    5.873  2.74
   9991.80    5.864  2.74
   9994.54    5.856  2.74
   9997.28    5.847  2.74
  10000.02    5.838  2.74
  10002.76    5.833  2.74
  10005.50    5.843  2.74
  10008.24    5.854  2.74
  10010.98    5.863  2.74
  10013.72    5.872  2.74
  10016.46    5.879  2.74
  10019.20    5.883  2.74
  10021.94    5.887  2.74
  10024.68    5.897  2.74
  10027.42    5.905  2.74
  10030.16    5.906  2.74
  10032.90    5.904  2.74
  10035.64    5.900  2.74
  10038.38    5.890  2.74
  10041.12    5.878  2.74
  10043.86    5.875  2.74
  10046.60    5.875  2.74
  10049.34    5.870  2.74
  10052.08    5.868  2.74
  10054.82    5.874  2.74
  10057.56    5.868  2.74
  10060.30    5.847  2.74
  10063.04    5.848  2.74
  10065.78    5.857  2.74
  10068.52    5.865  2.74
  10071.26    5.867  2.74
  10074.00    5.847  2.74
  10076.74    5.839  2.74
  10079.48    5.857  2.74
  10082.22    5.853  2.74
  10084.96    5.836  2.74
  10087.70    5.837  2.74
  10090.44    5.843  2.74
  10093.18    5.846  2.74
  10095.92    5.847  2.74
  10098.66    5.842  2.74
  10101.40    5.845  2.74
  10104.14    5.855  2.74
  10106.88    5.859  2.74
  10109.62    5.861  2.74
  10112.36    5.851  2.74
  10115.10    5.849  2.74
  10117.84    5.883  2.74
  10120.58    5.892  2.74
  10123.32    5.843  2.74
  10126.06    5.838  2.74
  10128.80    5.862  2.74
  10131.54    5.877  2.74
  10134.28    5.887  2.74
  10137.02    5.874  2.74
  10139.76    5.864  2.74
  10142.50    5.880  2.74
  10145.24    5.881  2.74
  10147.98    5.864  2.74
  10150.72    5.869  2.74
  10153.46    5.882  2.74
  10156.20    5.855  2.74
  10158.94    5.833  2.74
  10161.68    5.867  2.74
  10164.42    5.881  2.74
  10167.16    5.846  2.74
  10169.90    5.837  2.74
  10172.64    5.845  2.74
  10175.38    5.836  2.74
  10178.12    5.826  2.74
  10180.86    5.839  2.74
  10183.60    5.851  2.74
  10186.34    5.845  2.74
  10189.08    5.846  2.74
  10191.82    5.858  2.74
  10194.56    5.811  2.74
  10197.30    5.778  2.74
  10200.04    6.548  2.74
  10202.78-NaN       2.74
  10205.52-NaN       2.74
