#HD019445                                                    
#                                                            
#  HEAP-Lindler STIS                                         
# wavelength  ABmag  band
   2950.00    9.767  2.74
   2952.74    9.746  2.74
   2955.48    9.723  2.74
   2958.22    9.704  2.74
   2960.96    9.685  2.74
   2963.70    9.705  2.74
   2966.44    9.787  2.74
   2969.18    9.784  2.74
   2971.92    9.771  2.74
   2974.66    9.692  2.74
   2977.40    9.650  2.74
   2980.14    9.701  2.74
   2982.88    9.758  2.74
   2985.62    9.796  2.74
   2988.36    9.707  2.74
   2991.10    9.650  2.74
   2993.84    9.680  2.74
   2996.58    9.659  2.74
   2999.32    9.692  2.74
   3002.06    9.742  2.74
   3004.80    9.689  2.74
   3007.54    9.694  2.74
   3010.28    9.664  2.74
   3013.02    9.644  2.74
   3015.76    9.661  2.74
   3018.50    9.720  2.74
   3021.24    9.780  2.74
   3023.98    9.677  2.74
   3026.72    9.644  2.74
   3029.46    9.612  2.74
   3032.20    9.621  2.74
   3034.94    9.590  2.74
   3037.68    9.622  2.74
   3040.42    9.608  2.74
   3043.16    9.615  2.74
   3045.90    9.603  2.74
   3048.64    9.613  2.74
   3051.38    9.585  2.74
   3054.12    9.593  2.74
   3056.86    9.639  2.74
   3059.60    9.669  2.74
   3062.34    9.648  2.74
   3065.08    9.688  2.74
   3067.82    9.752  2.74
   3070.56    9.706  2.74
   3073.30    9.668  2.74
   3076.04    9.627  2.74
   3078.78    9.626  2.74
   3081.52    9.628  2.74
   3084.26    9.603  2.74
   3087.00    9.621  2.74
   3089.74    9.654  2.74
   3092.48    9.701  2.74
   3095.22    9.700  2.74
   3097.96    9.689  2.74
   3100.70    9.696  2.74
   3103.44    9.665  2.74
   3106.18    9.608  2.74
   3108.92    9.560  2.74
   3111.66    9.545  2.74
   3114.40    9.546  2.74
   3117.14    9.556  2.74
   3119.88    9.585  2.74
   3122.62    9.594  2.74
   3125.36    9.599  2.74
   3128.10    9.598  2.74
   3130.84    9.587  2.74
   3133.58    9.568  2.74
   3136.32    9.549  2.74
   3139.06    9.526  2.74
   3141.80    9.542  2.74
   3144.54    9.619  2.74
   3147.28    9.592  2.74
   3150.02    9.542  2.74
   3152.76    9.533  2.74
   3155.50    9.546  2.74
   3158.24    9.586  2.74
   3160.98    9.610  2.74
   3163.72    9.588  2.74
   3166.46    9.510  2.74
   3169.20    9.501  2.74
   3171.94    9.494  2.74
   3174.68    9.467  2.74
   3177.42    9.482  2.74
   3180.16    9.532  2.74
   3182.90    9.553  2.74
   3185.64    9.528  2.74
   3188.38    9.498  2.74
   3191.12    9.502  2.74
   3193.86    9.526  2.74
   3196.60    9.517  2.74
   3199.34    9.485  2.74
   3202.08    9.460  2.74
   3204.82    9.436  2.74
   3207.56    9.420  2.74
   3210.30    9.452  2.74
   3213.04    9.493  2.74
   3215.78    9.492  2.74
   3218.52    9.467  2.74
   3221.26    9.445  2.74
   3224.00    9.440  2.74
   3226.74    9.457  2.74
   3229.48    9.480  2.74
   3232.22    9.479  2.74
   3234.96    9.476  2.74
   3237.70    9.473  2.74
   3240.44    9.450  2.74
   3243.18    9.419  2.74
   3245.92    9.390  2.74
   3248.66    9.402  2.74
   3251.40    9.408  2.74
   3254.14    9.405  2.74
   3256.88    9.373  2.74
   3259.62    9.345  2.74
   3262.36    9.339  2.74
   3265.10    9.340  2.74
   3267.84    9.331  2.74
   3270.58    9.334  2.74
   3273.32    9.351  2.74
   3276.06    9.339  2.74
   3278.80    9.347  2.74
   3281.54    9.343  2.74
   3284.28    9.320  2.74
   3287.02    9.322  2.74
   3289.76    9.326  2.74
   3292.50    9.303  2.74
   3295.24    9.278  2.74
   3297.98    9.269  2.74
   3300.72    9.273  2.74
   3303.46    9.281  2.74
   3306.20    9.306  2.74
   3308.94    9.297  2.74
   3311.68    9.273  2.74
   3314.42    9.272  2.74
   3317.16    9.283  2.74
   3319.90    9.288  2.74
   3322.64    9.308  2.74
   3325.38    9.312  2.74
   3328.12    9.296  2.74
   3330.86    9.299  2.74
   3333.60    9.295  2.74
   3336.34    9.292  2.74
   3339.08    9.291  2.74
   3341.82    9.298  2.74
   3344.56    9.291  2.74
   3347.30    9.281  2.74
   3350.04    9.306  2.74
   3352.78    9.286  2.74
   3355.52    9.239  2.74
   3358.26    9.238  2.74
   3361.00    9.278  2.74
   3363.74    9.293  2.74
   3366.48    9.278  2.74
   3369.22    9.279  2.74
   3371.96    9.300  2.74
   3374.70    9.294  2.74
   3377.44    9.250  2.74
   3380.18    9.262  2.74
   3382.92    9.274  2.74
   3385.66    9.254  2.74
   3388.40    9.238  2.74
   3391.14    9.243  2.74
   3393.88    9.256  2.74
   3396.62    9.230  2.74
   3399.36    9.204  2.74
   3402.10    9.199  2.74
   3404.84    9.222  2.74
   3407.58    9.247  2.74
   3410.32    9.243  2.74
   3413.06    9.245  2.74
   3415.80    9.240  2.74
   3418.54    9.217  2.74
   3421.28    9.196  2.74
   3424.02    9.199  2.74
   3426.76    9.207  2.74
   3429.50    9.196  2.74
   3432.24    9.182  2.74
   3434.98    9.184  2.74
   3437.72    9.190  2.74
   3440.46    9.195  2.74
   3443.20    9.240  2.74
   3445.94    9.246  2.74
   3448.68    9.202  2.74
   3451.42    9.193  2.74
   3454.16    9.198  2.74
   3456.90    9.186  2.74
   3459.64    9.180  2.74
   3462.38    9.191  2.74
   3465.12    9.183  2.74
   3467.86    9.168  2.74
   3470.60    9.161  2.74
   3473.34    9.169  2.74
   3476.08    9.200  2.74
   3478.82    9.185  2.74
   3481.56    9.145  2.74
   3484.30    9.141  2.74
   3487.04    9.139  2.74
   3489.78    9.156  2.74
   3492.52    9.177  2.74
   3495.26    9.170  2.74
   3498.00    9.162  2.74
   3500.74    9.155  2.74
   3503.48    9.142  2.74
   3506.22    9.117  2.74
   3508.96    9.119  2.74
   3511.70    9.146  2.74
   3514.44    9.161  2.74
   3517.18    9.146  2.74
   3519.92    9.125  2.74
   3522.66    9.138  2.74
   3525.40    9.178  2.74
   3528.14    9.184  2.74
   3530.88    9.139  2.74
   3533.62    9.106  2.74
   3536.36    9.097  2.74
   3539.10    9.090  2.74
   3541.84    9.086  2.74
   3544.58    9.079  2.74
   3547.32    9.071  2.74
   3550.06    9.065  2.74
   3552.80    9.068  2.74
   3555.54    9.078  2.74
   3558.28    9.078  2.74
   3561.02    9.066  2.74
   3563.76    9.069  2.74
   3566.50    9.101  2.74
   3569.24    9.129  2.74
   3571.98    9.145  2.74
   3574.72    9.127  2.74
   3577.46    9.103  2.74
   3580.20    9.105  2.74
   3582.94    9.118  2.74
   3585.68    9.143  2.74
   3588.42    9.146  2.74
   3591.16    9.096  2.74
   3593.90    9.066  2.74
   3596.64    9.061  2.74
   3599.38    9.038  2.74
   3602.12    9.036  2.74
   3604.86    9.060  2.74
   3607.60    9.071  2.74
   3610.34    9.071  2.74
   3613.08    9.069  2.74
   3615.82    9.056  2.74
   3618.56    9.058  2.74
   3621.30    9.068  2.74
   3624.04    9.050  2.74
   3626.78    9.020  2.74
   3629.52    9.016  2.74
   3632.26    9.051  2.74
   3635.00    9.055  2.74
   3637.74    9.025  2.74
   3640.48    9.012  2.74
   3643.22    9.020  2.74
   3645.96    9.033  2.74
   3648.70    9.041  2.74
   3651.44    9.029  2.74
   3654.18    8.994  2.74
   3656.92    8.978  2.74
   3659.66    8.980  2.74
   3662.40    8.981  2.74
   3665.14    8.977  2.74
   3667.88    8.963  2.74
   3670.62    8.967  2.74
   3673.36    8.975  2.74
   3676.10    8.970  2.74
   3678.84    8.981  2.74
   3681.58    8.996  2.74
   3684.32    9.006  2.74
   3687.06    9.015  2.74
   3689.80    8.999  2.74
   3692.54    8.966  2.74
   3695.28    8.954  2.74
   3698.02    8.952  2.74
   3700.76    8.952  2.74
   3703.50    8.958  2.74
   3706.24    9.003  2.74
   3708.98    9.008  2.74
   3711.72    8.992  2.74
   3714.46    8.961  2.74
   3717.20    8.910  2.74
   3719.94    8.950  2.74
   3722.68    9.029  2.74
   3725.42    8.987  2.74
   3728.16    8.904  2.74
   3730.90    8.902  2.74
   3733.64    8.992  2.74
   3736.38    9.087  2.74
   3739.12    8.997  2.74
   3741.86    8.872  2.74
   3744.60    8.879  2.74
   3747.34    8.960  2.74
   3750.08    9.058  2.74
   3752.82    9.032  2.74
   3755.56    8.884  2.74
   3758.30    8.833  2.74
   3761.04    8.837  2.74
   3763.78    8.818  2.74
   3766.52    8.841  2.74
   3769.26    8.932  2.74
   3772.00    8.995  2.74
   3774.74    8.916  2.74
   3777.48    8.793  2.74
   3780.22    8.729  2.74
   3782.96    8.702  2.74
   3785.70    8.704  2.74
   3788.44    8.725  2.74
   3791.18    8.749  2.74
   3793.92    8.796  2.74
   3796.66    8.922  2.74
   3799.40    9.023  2.74
   3802.14    8.915  2.74
   3804.88    8.769  2.74
   3807.62    8.724  2.74
   3810.36    8.697  2.74
   3813.10    8.684  2.74
   3815.84    8.706  2.74
   3818.58    8.704  2.74
   3821.32    8.703  2.74
   3824.06    8.732  2.74
   3826.80    8.771  2.74
   3829.54    8.811  2.74
   3832.28    8.900  2.74
   3835.02    9.046  2.74
   3837.76    9.084  2.74
   3840.50    8.936  2.74
   3843.24    8.782  2.74
   3845.98    8.690  2.74
   3848.72    8.664  2.74
   3851.46    8.655  2.74
   3854.20    8.637  2.74
   3856.94    8.638  2.74
   3859.68    8.661  2.74
   3862.42    8.651  2.74
   3865.16    8.619  2.74
   3867.90    8.617  2.74
   3870.64    8.627  2.74
   3873.38    8.655  2.74
   3876.12    8.669  2.74
   3878.86    8.683  2.74
   3881.60    8.692  2.74
   3884.34    8.718  2.74
   3887.08    8.860  2.74
   3889.82    8.993  2.74
   3892.56    8.915  2.74
   3895.30    8.775  2.74
   3898.04    8.716  2.74
   3900.78    8.685  2.74
   3903.52    8.668  2.74
   3906.26    8.660  2.74
   3909.00    8.629  2.74
   3911.74    8.598  2.74
   3914.48    8.595  2.74
   3917.22    8.600  2.74
   3919.96    8.608  2.74
   3922.70    8.621  2.74
   3925.44    8.623  2.74
   3928.18    8.683  2.74
   3930.92    8.890  2.74
   3933.66    9.226  2.74
   3936.40    9.230  2.74
   3939.14    8.829  2.74
   3941.88    8.655  2.74
   3944.62    8.609  2.74
   3947.36    8.591  2.74
   3950.10    8.583  2.74
   3952.84    8.590  2.74
   3955.58    8.595  2.74
   3958.32    8.605  2.74
   3961.06    8.634  2.74
   3963.80    8.717  2.74
   3966.54    8.929  2.74
   3969.28    9.273  2.74
   3972.02    9.179  2.74
   3974.76    8.827  2.74
   3977.50    8.662  2.74
   3980.24    8.587  2.74
   3982.98    8.562  2.74
   3985.72    8.551  2.74
   3988.46    8.533  2.74
   3991.20    8.511  2.74
   3993.94    8.516  2.74
   3996.68    8.522  2.74
   3999.42    8.523  2.74
   4002.16    8.511  2.74
   4004.90    8.512  2.74
   4007.64    8.508  2.74
   4010.38    8.502  2.74
   4013.12    8.502  2.74
   4015.86    8.491  2.74
   4018.60    8.485  2.74
   4021.34    8.481  2.74
   4024.08    8.483  2.74
   4026.82    8.479  2.74
   4029.56    8.480  2.74
   4032.30    8.500  2.74
   4035.04    8.493  2.74
   4037.78    8.479  2.74
   4040.52    8.470  2.74
   4043.26    8.479  2.74
   4046.00    8.492  2.74
   4048.74    8.488  2.74
   4051.48    8.463  2.74
   4054.22    8.461  2.74
   4056.96    8.473  2.74
   4059.70    8.474  2.74
   4062.44    8.475  2.74
   4065.18    8.492  2.74
   4067.92    8.478  2.74
   4070.66    8.470  2.74
   4073.40    8.483  2.74
   4076.14    8.483  2.74
   4078.88    8.479  2.74
   4081.62    8.470  2.74
   4084.36    8.471  2.74
   4087.10    8.476  2.74
   4089.84    8.477  2.74
   4092.58    8.491  2.74
   4095.32    8.527  2.74
   4098.06    8.603  2.74
   4100.80    8.740  2.74
   4103.54    8.814  2.74
   4106.28    8.652  2.74
   4109.02    8.549  2.74
   4111.76    8.499  2.74
   4114.50    8.473  2.74
   4117.24    8.465  2.74
   4119.98    8.462  2.74
   4122.72    8.454  2.74
   4125.46    8.448  2.74
   4128.20    8.440  2.74
   4130.94    8.439  2.74
   4133.68    8.450  2.74
   4136.42    8.441  2.74
   4139.16    8.433  2.74
   4141.90    8.436  2.74
   4144.64    8.443  2.74
   4147.38    8.433  2.74
   4150.12    8.428  2.74
   4152.86    8.426  2.74
   4155.60    8.434  2.74
   4158.34    8.432  2.74
   4161.08    8.416  2.74
   4163.82    8.409  2.74
   4166.56    8.418  2.74
   4169.30    8.418  2.74
   4172.04    8.420  2.74
   4174.78    8.429  2.74
   4177.52    8.424  2.74
   4180.26    8.420  2.74
   4183.00    8.417  2.74
   4185.74    8.423  2.74
   4188.48    8.431  2.74
   4191.22    8.419  2.74
   4193.96    8.412  2.74
   4196.70    8.421  2.74
   4199.44    8.434  2.74
   4202.18    8.425  2.74
   4204.92    8.412  2.74
   4207.66    8.399  2.74
   4210.40    8.401  2.74
   4213.14    8.403  2.74
   4215.88    8.412  2.74
   4218.62    8.418  2.74
   4221.36    8.410  2.74
   4224.10    8.421  2.74
   4226.84    8.445  2.74
   4229.58    8.432  2.74
   4232.32    8.407  2.74
   4235.06    8.413  2.74
   4237.80    8.412  2.74
   4240.54    8.403  2.74
   4243.28    8.394  2.74
   4246.02    8.397  2.74
   4248.76    8.414  2.74
   4251.50    8.417  2.74
   4254.24    8.404  2.74
   4256.98    8.397  2.74
   4259.72    8.391  2.74
   4262.46    8.400  2.74
   4265.20    8.385  2.74
   4267.94    8.386  2.74
   4270.68    8.408  2.74
   4273.42    8.415  2.74
   4276.16    8.399  2.74
   4278.90    8.383  2.74
   4281.64    8.388  2.74
   4284.38    8.393  2.74
   4287.12    8.398  2.74
   4289.86    8.413  2.74
   4292.60    8.419  2.74
   4295.34    8.417  2.74
   4298.08    8.433  2.74
   4300.82    8.467  2.74
   4303.56    8.463  2.74
   4306.30    8.458  2.74
   4309.04    8.474  2.74
   4311.78    8.449  2.74
   4314.52    8.415  2.74
   4317.26    8.387  2.74
   4320.00    8.378  2.74
   4322.74    8.386  2.74
   4325.48    8.409  2.74
   4328.22    8.404  2.74
   4330.96    8.388  2.74
   4333.70    8.423  2.74
   4336.44    8.499  2.74
   4339.18    8.639  2.74
   4341.92    8.710  2.74
   4344.66    8.542  2.74
   4347.40    8.436  2.74
   4350.14    8.401  2.74
   4352.88    8.387  2.74
   4355.62    8.368  2.74
   4358.36    8.352  2.74
   4361.10    8.343  2.74
   4363.84    8.336  2.74
   4366.58    8.340  2.74
   4369.32    8.337  2.74
   4372.06    8.340  2.74
   4374.80    8.351  2.74
   4377.54    8.342  2.74
   4380.28    8.336  2.74
   4383.02    8.344  2.74
   4385.76    8.356  2.74
   4388.50    8.330  2.74
   4391.24    8.323  2.74
   4393.98    8.325  2.74
   4396.72    8.328  2.74
   4399.46    8.326  2.74
   4402.20    8.325  2.74
   4404.94    8.335  2.74
   4407.68    8.328  2.74
   4410.42    8.311  2.74
   4413.16    8.315  2.74
   4415.90    8.314  2.74
   4418.64    8.317  2.74
   4421.38    8.300  2.74
   4424.12    8.306  2.74
   4426.86    8.306  2.74
   4429.60    8.307  2.74
   4432.34    8.306  2.74
   4435.08    8.309  2.74
   4437.82    8.298  2.74
   4440.56    8.294  2.74
   4443.30    8.307  2.74
   4446.04    8.300  2.74
   4448.78    8.297  2.74
   4451.52    8.299  2.74
   4454.26    8.303  2.74
   4457.00    8.305  2.74
   4459.74    8.302  2.74
   4462.48    8.294  2.74
   4465.22    8.289  2.74
   4467.96    8.302  2.74
   4470.70    8.294  2.74
   4473.44    8.288  2.74
   4476.18    8.279  2.74
   4478.92    8.283  2.74
   4481.66    8.293  2.74
   4484.40    8.285  2.74
   4487.14    8.281  2.74
   4489.88    8.279  2.74
   4492.62    8.279  2.74
   4495.36    8.281  2.74
   4498.10    8.276  2.74
   4500.84    8.287  2.74
   4503.58    8.277  2.74
   4506.32    8.274  2.74
   4509.06    8.275  2.74
   4511.80    8.265  2.74
   4514.54    8.275  2.74
   4517.28    8.273  2.74
   4520.02    8.270  2.74
   4522.76    8.279  2.74
   4525.50    8.278  2.74
   4528.24    8.280  2.74
   4530.98    8.287  2.74
   4533.72    8.293  2.74
   4536.46    8.277  2.74
   4539.20    8.270  2.74
   4541.94    8.264  2.74
   4544.68    8.260  2.74
   4547.42    8.275  2.74
   4550.16    8.276  2.74
   4552.90    8.272  2.74
   4555.64    8.267  2.74
   4558.38    8.252  2.74
   4561.12    8.256  2.74
   4563.86    8.258  2.74
   4566.60    8.252  2.74
   4569.34    8.257  2.74
   4572.08    8.261  2.74
   4574.82    8.253  2.74
   4577.56    8.250  2.74
   4580.30    8.247  2.74
   4583.04    8.245  2.74
   4585.78    8.248  2.74
   4588.52    8.240  2.74
   4591.26    8.238  2.74
   4594.00    8.242  2.74
   4596.74    8.235  2.74
   4599.48    8.242  2.74
   4602.22    8.247  2.74
   4604.96    8.238  2.74
   4607.70    8.234  2.74
   4610.44    8.224  2.74
   4613.18    8.231  2.74
   4615.92    8.233  2.74
   4618.66    8.231  2.74
   4621.40    8.223  2.74
   4624.14    8.229  2.74
   4626.88    8.223  2.74
   4629.62    8.227  2.74
   4632.36    8.228  2.74
   4635.10    8.224  2.74
   4637.84    8.219  2.74
   4640.58    8.220  2.74
   4643.32    8.223  2.74
   4646.06    8.220  2.74
   4648.80    8.223  2.74
   4651.54    8.219  2.74
   4654.28    8.221  2.74
   4657.02    8.214  2.74
   4659.76    8.213  2.74
   4662.50    8.213  2.74
   4665.24    8.212  2.74
   4667.98    8.218  2.74
   4670.72    8.212  2.74
   4673.46    8.207  2.74
   4676.20    8.212  2.74
   4678.94    8.213  2.74
   4681.68    8.210  2.74
   4684.42    8.207  2.74
   4687.16    8.205  2.74
   4689.90    8.204  2.74
   4692.64    8.208  2.74
   4695.38    8.207  2.74
   4698.12    8.203  2.74
   4700.86    8.212  2.74
   4703.60    8.219  2.74
   4706.34    8.208  2.74
   4709.08    8.204  2.74
   4711.82    8.204  2.74
   4714.56    8.207  2.74
   4717.30    8.196  2.74
   4720.04    8.198  2.74
   4722.78    8.198  2.74
   4725.52    8.189  2.74
   4728.26    8.197  2.74
   4731.00    8.192  2.74
   4733.74    8.187  2.74
   4736.48    8.193  2.74
   4739.22    8.192  2.74
   4741.96    8.188  2.74
   4744.70    8.181  2.74
   4747.44    8.187  2.74
   4750.18    8.190  2.74
   4752.92    8.190  2.74
   4755.66    8.186  2.74
   4758.40    8.185  2.74
   4761.14    8.191  2.74
   4763.88    8.194  2.74
   4766.62    8.194  2.74
   4769.36    8.186  2.74
   4772.10    8.189  2.74
   4774.84    8.186  2.74
   4777.58    8.187  2.74
   4780.32    8.186  2.74
   4783.06    8.184  2.74
   4785.80    8.188  2.74
   4788.54    8.185  2.74
   4791.28    8.179  2.74
   4794.02    8.183  2.74
   4796.76    8.177  2.74
   4799.50    8.181  2.74
   4802.24    8.180  2.74
   4804.98    8.175  2.74
   4807.72    8.177  2.74
   4810.46    8.181  2.74
   4813.20    8.180  2.74
   4815.94    8.174  2.74
   4818.68    8.171  2.74
   4821.42    8.172  2.74
   4824.16    8.172  2.74
   4826.90    8.170  2.74
   4829.64    8.175  2.74
   4832.38    8.171  2.74
   4835.12    8.178  2.74
   4837.86    8.176  2.74
   4840.60    8.177  2.74
   4843.34    8.191  2.74
   4846.08    8.193  2.74
   4848.82    8.195  2.74
   4851.56    8.213  2.74
   4854.30    8.252  2.74
   4857.04    8.324  2.74
   4859.78    8.471  2.74
   4862.52    8.479  2.74
   4865.26    8.345  2.74
   4868.00    8.257  2.74
   4870.74    8.230  2.74
   4873.48    8.206  2.74
   4876.22    8.187  2.74
   4878.96    8.178  2.74
   4881.70    8.170  2.74
   4884.44    8.166  2.74
   4887.18    8.168  2.74
   4889.92    8.175  2.74
   4892.66    8.148  2.74
   4895.40    8.149  2.74
   4898.14    8.155  2.74
   4900.88    8.155  2.74
   4903.62    8.151  2.74
   4906.36    8.144  2.74
   4909.10    8.145  2.74
   4911.84    8.145  2.74
   4914.58    8.148  2.74
   4917.32    8.157  2.74
   4920.06    8.164  2.74
   4922.80    8.162  2.74
   4925.54    8.153  2.74
   4928.28    8.143  2.74
   4931.02    8.139  2.74
   4933.76    8.148  2.74
   4936.50    8.146  2.74
   4939.24    8.144  2.74
   4941.98    8.135  2.74
   4944.72    8.132  2.74
   4947.46    8.127  2.74
   4950.20    8.131  2.74
   4952.94    8.133  2.74
   4955.68    8.143  2.74
   4958.42    8.154  2.74
   4961.16    8.143  2.74
   4963.90    8.131  2.74
   4966.64    8.134  2.74
   4969.38    8.135  2.74
   4972.12    8.143  2.74
   4974.86    8.132  2.74
   4977.60    8.131  2.74
   4980.34    8.138  2.74
   4983.08    8.141  2.74
   4985.82    8.135  2.74
   4988.56    8.132  2.74
   4991.30    8.126  2.74
   4994.04    8.131  2.74
   4996.78    8.130  2.74
   4999.52    8.131  2.74
   5002.26    8.133  2.74
   5005.00    8.136  2.74
   5007.74    8.143  2.74
   5010.48    8.133  2.74
   5013.22    8.135  2.74
   5015.96    8.146  2.74
   5018.70    8.126  2.74
   5021.44    8.122  2.74
   5024.18    8.128  2.74
   5026.92    8.123  2.74
   5029.66    8.120  2.74
   5032.40    8.122  2.74
   5035.14    8.122  2.74
   5037.88    8.125  2.74
   5040.62    8.129  2.74
   5043.36    8.122  2.74
   5046.10    8.119  2.74
   5048.84    8.125  2.74
   5051.58    8.123  2.74
   5054.32    8.115  2.74
   5057.06    8.111  2.74
   5059.80    8.109  2.74
   5062.54    8.112  2.74
   5065.28    8.115  2.74
   5068.02    8.117  2.74
   5070.76    8.106  2.74
   5073.50    8.111  2.74
   5076.24    8.119  2.74
   5078.98    8.115  2.74
   5081.72    8.112  2.74
   5084.46    8.112  2.74
   5087.20    8.110  2.74
   5089.94    8.108  2.74
   5092.68    8.104  2.74
   5095.42    8.103  2.74
   5098.16    8.108  2.74
   5100.90    8.107  2.74
   5103.64    8.109  2.74
   5106.38    8.113  2.74
   5109.12    8.110  2.74
   5111.86    8.108  2.74
   5114.60    8.103  2.74
   5117.34    8.103  2.74
   5120.08    8.104  2.74
   5122.82    8.105  2.74
   5125.56    8.098  2.74
   5128.30    8.097  2.74
   5131.04    8.096  2.74
   5133.78    8.099  2.74
   5136.52    8.098  2.74
   5139.26    8.110  2.74
   5142.00    8.106  2.74
   5144.74    8.095  2.74
   5147.48    8.097  2.74
   5150.22    8.092  2.74
   5152.96    8.090  2.74
   5155.70    8.091  2.74
   5158.44    8.089  2.74
   5161.18    8.099  2.74
   5163.92    8.104  2.74
   5166.66    8.138  2.74
   5169.40    8.154  2.74
   5172.14    8.152  2.74
   5174.88    8.126  2.74
   5177.62    8.096  2.74
   5180.36    8.100  2.74
   5183.10    8.135  2.74
   5185.84    8.125  2.74
   5188.58    8.101  2.74
   5191.32    8.099  2.74
   5194.06    8.096  2.74
   5196.80    8.085  2.74
   5199.54    8.083  2.74
   5202.28    8.088  2.74
   5205.02    8.096  2.74
   5207.76    8.094  2.74
   5210.50    8.088  2.74
   5213.24    8.079  2.74
   5215.98    8.078  2.74
   5218.72    8.072  2.74
   5221.46    8.070  2.74
   5224.20    8.079  2.74
   5226.94    8.091  2.74
   5229.68    8.085  2.74
   5232.42    8.081  2.74
   5235.16    8.077  2.74
   5237.90    8.069  2.74
   5240.64    8.070  2.74
   5243.38    8.069  2.74
   5246.12    8.064  2.74
   5248.86    8.061  2.74
   5251.60    8.065  2.74
   5254.34    8.065  2.74
   5257.08    8.065  2.74
   5259.82    8.066  2.74
   5262.56    8.073  2.74
   5265.30    8.083  2.74
   5268.04    8.093  2.74
   5270.78    8.092  2.74
   5273.52    8.076  2.74
   5276.26    8.064  2.74
   5279.00    8.058  2.74
   5281.74    8.062  2.74
   5284.48    8.066  2.74
   5287.22    8.060  2.74
   5289.96    8.053  2.74
   5292.70    8.053  2.74
   5295.44    8.055  2.74
   5298.18    8.057  2.74
   5300.92    8.053  2.74
   5303.66    8.047  2.74
   5306.40    8.050  2.74
   5309.14    8.052  2.74
   5311.88    8.051  2.74
   5314.62    8.052  2.74
   5317.36    8.054  2.74
   5320.10    8.059  2.74
   5322.84    8.063  2.74
   5325.58    8.068  2.74
   5328.32    8.075  2.74
   5331.06    8.062  2.74
   5333.80    8.050  2.74
   5336.54    8.050  2.74
   5339.28    8.052  2.74
   5342.02    8.052  2.74
   5344.76    8.043  2.74
   5347.50    8.046  2.74
   5350.24    8.049  2.74
   5352.98    8.038  2.74
   5355.72    8.043  2.74
   5358.46    8.044  2.74
   5361.20    8.042  2.74
   5363.94    8.047  2.74
   5366.68    8.049  2.74
   5369.42    8.063  2.74
   5372.16    8.060  2.74
   5374.90    8.043  2.74
   5377.64    8.039  2.74
   5380.38    8.043  2.74
   5383.12    8.044  2.74
   5385.86    8.040  2.74
   5388.60    8.043  2.74
   5391.34    8.044  2.74
   5394.08    8.044  2.74
   5396.82    8.048  2.74
   5399.56    8.044  2.74
   5402.30    8.055  2.74
   5405.04    8.060  2.74
   5407.78    8.051  2.74
   5410.52    8.043  2.74
   5413.26    8.036  2.74
   5416.00    8.037  2.74
   5418.74    8.034  2.74
   5421.48    8.037  2.74
   5424.22    8.039  2.74
   5426.96    8.038  2.74
   5429.70    8.043  2.74
   5432.44    8.047  2.74
   5435.18    8.040  2.74
   5437.92    8.032  2.74
   5440.66    8.032  2.74
   5443.40    8.035  2.74
   5446.14    8.045  2.74
   5448.88    8.039  2.74
   5451.62    8.026  2.74
   5454.36    8.035  2.74
   5457.10    8.046  2.74
   5459.84    8.036  2.74
   5462.58    8.028  2.74
   5465.32    8.024  2.74
   5468.06    8.023  2.74
   5470.80    8.025  2.74
   5473.54    8.022  2.74
   5476.28    8.026  2.74
   5479.02    8.024  2.74
   5481.76    8.016  2.74
   5484.50    8.018  2.74
   5487.24    8.019  2.74
   5489.98    8.017  2.74
   5492.72    8.018  2.74
   5495.46    8.020  2.74
   5498.20    8.015  2.74
   5500.94    8.015  2.74
   5503.68    8.028  2.74
   5506.42    8.029  2.74
   5509.16    8.021  2.74
   5511.90    8.017  2.74
   5514.64    8.015  2.74
   5517.38    8.015  2.74
   5520.12    8.015  2.74
   5522.86    8.016  2.74
   5525.60    8.020  2.74
   5528.34    8.023  2.74
   5531.08    8.020  2.74
   5533.82    8.014  2.74
   5536.56    8.011  2.74
   5539.30    8.008  2.74
   5542.04    7.997  2.74
   5544.78    7.999  2.74
   5547.52    8.004  2.74
   5550.26    8.000  2.74
   5553.00    8.004  2.74
   5555.74    8.008  2.74
   5558.48    8.006  2.74
   5561.22    8.004  2.74
   5563.96    8.008  2.74
   5566.70    8.013  2.74
   5569.44    8.016  2.74
   5572.18    8.015  2.74
   5574.92    8.009  2.74
   5577.66    8.006  2.74
   5580.40    8.007  2.74
   5583.14    8.004  2.74
   5585.88    8.007  2.74
   5588.62    8.014  2.74
   5591.36    8.014  2.74
   5594.10    8.011  2.74
   5596.84    8.012  2.74
   5599.58    8.010  2.74
   5602.32    8.004  2.74
   5605.06    7.995  2.74
   5607.80    7.985  2.74
   5610.54    7.981  2.74
   5613.28    7.991  2.74
   5616.02    8.001  2.74
   5618.76    7.999  2.74
   5621.50    7.996  2.74
   5624.24    7.993  2.74
   5626.98    7.992  2.74
   5629.72    7.991  2.74
   5632.46    7.990  2.74
   5635.20    7.988  2.74
   5637.94    7.987  2.74
   5640.68    7.987  2.74
   5643.42    7.984  2.74
   5646.16    7.972  2.74
   5648.90    7.985  2.74
   5651.64    8.001  2.74
   5654.38    8.000  2.74
   5657.12    7.991  2.74
   5659.86    7.990  2.74
   5662.60    8.000  2.74
   5665.34    8.005  2.74
   5668.08    8.008  2.74
   5670.82    8.010  2.74
   5673.56    8.010  2.74
   5676.30    8.003  2.74
   5679.04    7.999  2.74
   5681.78    8.002  2.74
   5684.52    8.002  2.74
   5687.26    8.000  2.74
   5690.00    7.997  2.74
   5692.74    7.994  2.74
   5695.48    7.994  2.74
   5698.22    7.990  2.74
   5700.96    7.973  2.74
   5703.70    7.975  2.74
   5706.44    8.005  2.74
   5709.18    8.005  2.74
   5711.92    7.990  2.74
   5714.66    7.987  2.74
   5717.40    7.986  2.74
   5720.14    7.987  2.74
   5722.88    7.988  2.74
   5725.62    7.987  2.74
   5728.36    7.987  2.74
   5731.10    7.989  2.74
   5733.84    7.987  2.74
   5736.58    7.985  2.74
   5739.32    7.986  2.74
   5742.06    7.987  2.74
   5744.80    7.984  2.74
   5747.54    7.981  2.74
   5750.28    7.982  2.74
   5753.02    7.981  2.74
   5755.76    7.979  2.74
   5758.50    7.975  2.74
   5761.24    7.971  2.74
   5763.98    7.972  2.74
   5766.72    7.973  2.74
   5769.46    7.973  2.74
   5772.20    7.972  2.74
   5774.94    7.970  2.74
   5777.68    7.969  2.74
   5780.42    7.969  2.74
   5783.16    7.960  2.74
   5785.90    7.956  2.74
   5788.64    7.970  2.74
   5791.38    7.976  2.74
   5794.12    7.965  2.74
   5796.86    7.966  2.74
   5799.60    7.973  2.74
   5802.34    7.974  2.74
   5805.08    7.968  2.74
   5807.82    7.941  2.74
   5810.56    7.931  2.74
   5813.30    7.966  2.74
   5816.04    7.981  2.74
   5818.78    7.977  2.74
   5821.52    7.973  2.74
   5824.26    7.965  2.74
   5827.00    7.956  2.74
   5829.74    7.949  2.74
   5832.48    7.951  2.74
   5835.22    7.953  2.74
   5837.96    7.952  2.74
   5840.70    7.955  2.74
   5843.44    7.961  2.74
   5846.18    7.969  2.74
   5848.92    7.975  2.74
   5851.66    7.971  2.74
   5854.40    7.966  2.74
   5857.14    7.961  2.74
   5859.88    7.959  2.74
   5862.62    7.961  2.74
   5865.36    7.958  2.74
   5868.10    7.955  2.74
   5870.84    7.957  2.74
   5873.58    7.958  2.74
   5876.32    7.947  2.74
   5879.06    7.944  2.74
   5881.80    7.957  2.74
   5884.54    7.963  2.74
   5887.28    7.964  2.74
   5890.02    7.973  2.74
   5892.76    7.982  2.74
   5895.50    7.974  2.74
   5898.24    7.965  2.74
   5900.98    7.962  2.74
   5903.72    7.956  2.74
   5906.46    7.944  2.74
   5909.20    7.947  2.74
   5911.94    7.958  2.74
   5914.68    7.957  2.74
   5917.42    7.954  2.74
   5920.16    7.954  2.74
   5922.90    7.953  2.74
   5925.64    7.948  2.74
   5928.38    7.946  2.74
   5931.12    7.945  2.74
   5933.86    7.949  2.74
   5936.60    7.955  2.74
   5939.34    7.956  2.74
   5942.08    7.954  2.74
   5944.82    7.946  2.74
   5947.56    7.944  2.74
   5950.30    7.951  2.74
   5953.04    7.950  2.74
   5955.78    7.946  2.74
   5958.52    7.944  2.74
   5961.26    7.944  2.74
   5964.00    7.946  2.74
   5966.74    7.949  2.74
   5969.48    7.947  2.74
   5972.22    7.951  2.74
   5974.96    7.961  2.74
   5977.70    7.954  2.74
   5980.44    7.941  2.74
   5983.18    7.937  2.74
   5985.92    7.935  2.74
   5988.66    7.938  2.74
   5991.40    7.943  2.74
   5994.14    7.953  2.74
   5996.88    7.956  2.74
   5999.62    7.953  2.74
   6002.36    7.934  2.74
   6005.10    7.918  2.74
   6007.84    7.931  2.74
   6010.58    7.943  2.74
   6013.32    7.950  2.74
   6016.06    7.951  2.74
   6018.80    7.947  2.74
   6021.54    7.940  2.74
   6024.28    7.933  2.74
   6027.02    7.945  2.74
   6029.76    7.953  2.74
   6032.50    7.942  2.74
   6035.24    7.934  2.74
   6037.98    7.930  2.74
   6040.72    7.931  2.74
   6043.46    7.936  2.74
   6046.20    7.935  2.74
   6048.94    7.934  2.74
   6051.68    7.942  2.74
   6054.42    7.943  2.74
   6057.16    7.929  2.74
   6059.90    7.926  2.74
   6062.64    7.931  2.74
   6065.38    7.939  2.74
   6068.12    7.944  2.74
   6070.86    7.912  2.74
   6073.60    7.890  2.74
   6076.34    7.918  2.74
   6079.08    7.937  2.74
   6081.82    7.937  2.74
   6084.56    7.926  2.74
   6087.30    7.907  2.74
   6090.04    7.917  2.74
   6092.78    7.936  2.74
   6095.52    7.936  2.74
   6098.26    7.934  2.74
   6101.00    7.935  2.74
   6103.74    7.935  2.74
   6106.48    7.934  2.74
   6109.22    7.936  2.74
   6111.96    7.939  2.74
   6114.70    7.942  2.74
   6117.44    7.944  2.74
   6120.18    7.942  2.74
   6122.92    7.940  2.74
   6125.66    7.937  2.74
   6128.40    7.939  2.74
   6131.14    7.944  2.74
   6133.88    7.946  2.74
   6136.62    7.946  2.74
   6139.36    7.936  2.74
   6142.10    7.927  2.74
   6144.84    7.923  2.74
   6147.58    7.923  2.74
   6150.32    7.928  2.74
   6153.06    7.931  2.74
   6155.80    7.934  2.74
   6158.54    7.933  2.74
   6161.28    7.931  2.74
   6164.02    7.935  2.74
   6166.76    7.936  2.74
   6169.50    7.932  2.74
   6172.24    7.929  2.74
   6174.98    7.926  2.74
   6177.72    7.920  2.74
   6180.46    7.916  2.74
   6183.20    7.924  2.74
   6185.94    7.931  2.74
   6188.68    7.928  2.74
   6191.42    7.931  2.74
   6194.16    7.944  2.74
   6196.90    7.941  2.74
   6199.64    7.932  2.74
   6202.38    7.927  2.74
   6205.12    7.924  2.74
   6207.86    7.921  2.74
   6210.60    7.918  2.74
   6213.34    7.915  2.74
   6216.08    7.916  2.74
   6218.82    7.920  2.74
   6221.56    7.917  2.74
   6224.30    7.912  2.74
   6227.04    7.918  2.74
   6229.78    7.922  2.74
   6232.52    7.914  2.74
   6235.26    7.913  2.74
   6238.00    7.922  2.74
   6240.74    7.924  2.74
   6243.48    7.922  2.74
   6246.22    7.926  2.74
   6248.96    7.930  2.74
   6251.70    7.930  2.74
   6254.44    7.928  2.74
   6257.18    7.924  2.74
   6259.92    7.922  2.74
   6262.66    7.920  2.74
   6265.40    7.920  2.74
   6268.14    7.920  2.74
   6270.88    7.923  2.74
   6273.62    7.925  2.74
   6276.36    7.925  2.74
   6279.10    7.922  2.74
   6281.84    7.911  2.74
   6284.58    7.911  2.74
   6287.32    7.916  2.74
   6290.06    7.917  2.74
   6292.80    7.918  2.74
   6295.54    7.923  2.74
   6298.28    7.926  2.74
   6301.02    7.924  2.74
   6303.76    7.922  2.74
   6306.50    7.918  2.74
   6309.24    7.915  2.74
   6311.98    7.913  2.74
   6314.72    7.914  2.74
   6317.46    7.916  2.74
   6320.20    7.925  2.74
   6322.94    7.926  2.74
   6325.68    7.913  2.74
   6328.42    7.913  2.74
   6331.16    7.921  2.74
   6333.90    7.925  2.74
   6336.64    7.925  2.74
   6339.38    7.906  2.74
   6342.12    7.896  2.74
   6344.86    7.911  2.74
   6347.60    7.918  2.74
   6350.34    7.917  2.74
   6353.08    7.915  2.74
   6355.82    7.911  2.74
   6358.56    7.915  2.74
   6361.30    7.920  2.74
   6364.04    7.916  2.74
   6366.78    7.914  2.74
   6369.52    7.914  2.74
   6372.26    7.914  2.74
   6375.00    7.914  2.74
   6377.74    7.911  2.74
   6380.48    7.909  2.74
   6383.22    7.910  2.74
   6385.96    7.913  2.74
   6388.70    7.916  2.74
   6391.44    7.915  2.74
   6394.18    7.911  2.74
   6396.92    7.909  2.74
   6399.66    7.908  2.74
   6402.40    7.902  2.74
   6405.14    7.896  2.74
   6407.88    7.899  2.74
   6410.62    7.902  2.74
   6413.36    7.906  2.74
   6416.10    7.904  2.74
   6418.84    7.897  2.74
   6421.58    7.892  2.74
   6424.32    7.889  2.74
   6427.06    7.898  2.74
   6429.80    7.904  2.74
   6432.54    7.897  2.74
   6435.28    7.895  2.74
   6438.02    7.897  2.74
   6440.76    7.897  2.74
   6443.50    7.896  2.74
   6446.24    7.896  2.74
   6448.98    7.896  2.74
   6451.72    7.893  2.74
   6454.46    7.895  2.74
   6457.20    7.906  2.74
   6459.94    7.906  2.74
   6462.68    7.897  2.74
   6465.42    7.895  2.74
   6468.16    7.897  2.74
   6470.90    7.900  2.74
   6473.64    7.900  2.74
   6476.38    7.894  2.74
   6479.12    7.890  2.74
   6481.86    7.888  2.74
   6484.60    7.887  2.74
   6487.34    7.889  2.74
   6490.08    7.893  2.74
   6492.82    7.897  2.74
   6495.56    7.901  2.74
   6498.30    7.900  2.74
   6501.04    7.893  2.74
   6503.78    7.889  2.74
   6506.52    7.890  2.74
   6509.26    7.892  2.74
   6512.00    7.894  2.74
   6514.74    7.889  2.74
   6517.48    7.884  2.74
   6520.22    7.883  2.74
   6522.96    7.885  2.74
   6525.70    7.891  2.74
   6528.44    7.891  2.74
   6531.18    7.888  2.74
   6533.92    7.895  2.74
   6536.66    7.904  2.74
   6539.40    7.907  2.74
   6542.14    7.910  2.74
   6544.88    7.914  2.74
   6547.62    7.927  2.74
   6550.36    7.950  2.74
   6553.10    7.967  2.74
   6555.84    7.990  2.74
   6558.58    8.063  2.74
   6561.32    8.125  2.74
   6564.06    8.130  2.74
   6566.80    8.091  2.74
   6569.54    7.990  2.74
   6572.28    7.942  2.74
   6575.02    7.919  2.74
   6577.76    7.905  2.74
   6580.50    7.898  2.74
   6583.24    7.892  2.74
   6585.98    7.890  2.74
   6588.72    7.899  2.74
   6591.46    7.895  2.74
   6594.20    7.878  2.74
   6596.94    7.875  2.74
   6599.68    7.879  2.74
   6602.42    7.880  2.74
   6605.16    7.880  2.74
   6607.90    7.881  2.74
   6610.64    7.880  2.74
   6613.38    7.875  2.74
   6616.12    7.877  2.74
   6618.86    7.882  2.74
   6621.60    7.877  2.74
   6624.34    7.869  2.74
   6627.08    7.868  2.74
   6629.82    7.870  2.74
   6632.56    7.875  2.74
   6635.30    7.873  2.74
   6638.04    7.863  2.74
   6640.78    7.865  2.74
   6643.52    7.872  2.74
   6646.26    7.871  2.74
   6649.00    7.870  2.74
   6651.74    7.876  2.74
   6654.48    7.876  2.74
   6657.22    7.867  2.74
   6659.96    7.864  2.74
   6662.70    7.865  2.74
   6665.44    7.863  2.74
   6668.18    7.863  2.74
   6670.92    7.870  2.74
   6673.66    7.874  2.74
   6676.40    7.871  2.74
   6679.14    7.865  2.74
   6681.88    7.857  2.74
   6684.62    7.858  2.74
   6687.36    7.865  2.74
   6690.10    7.865  2.74
   6692.84    7.865  2.74
   6695.58    7.863  2.74
   6698.32    7.865  2.74
   6701.06    7.872  2.74
   6703.80    7.878  2.74
   6706.54    7.884  2.74
   6709.28    7.876  2.74
   6712.02    7.864  2.74
   6714.76    7.869  2.74
   6717.50    7.873  2.74
   6720.24    7.870  2.74
   6722.98    7.869  2.74
   6725.72    7.875  2.74
   6728.46    7.859  2.74
   6731.20    7.834  2.74
   6733.94    7.849  2.74
   6736.68    7.869  2.74
   6739.42    7.865  2.74
   6742.16    7.861  2.74
   6744.90    7.864  2.74
   6747.64    7.865  2.74
   6750.38    7.865  2.74
   6753.12    7.862  2.74
   6755.86    7.859  2.74
   6758.60    7.861  2.74
   6761.34    7.866  2.74
   6764.08    7.874  2.74
   6766.82    7.877  2.74
   6769.56    7.874  2.74
   6772.30    7.871  2.74
   6775.04    7.868  2.74
   6777.78    7.864  2.74
   6780.52    7.863  2.74
   6783.26    7.874  2.74
   6786.00    7.876  2.74
   6788.74    7.855  2.74
   6791.48    7.854  2.74
   6794.22    7.871  2.74
   6796.96    7.873  2.74
   6799.70    7.871  2.74
   6802.44    7.867  2.74
   6805.18    7.865  2.74
   6807.92    7.871  2.74
   6810.66    7.873  2.74
   6813.40    7.870  2.74
   6816.14    7.866  2.74
   6818.88    7.861  2.74
   6821.62    7.866  2.74
   6824.36    7.873  2.74
   6827.10    7.870  2.74
   6829.84    7.865  2.74
   6832.58    7.863  2.74
   6835.32    7.862  2.74
   6838.06    7.864  2.74
   6840.80    7.862  2.74
   6843.54    7.860  2.74
   6846.28    7.861  2.74
   6849.02    7.862  2.74
   6851.76    7.862  2.74
   6854.50    7.862  2.74
   6857.24    7.865  2.74
   6859.98    7.868  2.74
   6862.72    7.870  2.74
   6865.46    7.871  2.74
   6868.20    7.869  2.74
   6870.94    7.857  2.74
   6873.68    7.852  2.74
   6876.42    7.864  2.74
   6879.16    7.867  2.74
   6881.90    7.858  2.74
   6884.64    7.859  2.74
   6887.38    7.862  2.74
   6890.12    7.854  2.74
   6892.86    7.849  2.74
   6895.60    7.863  2.74
   6898.34    7.868  2.74
   6901.08    7.854  2.74
   6903.82    7.855  2.74
   6906.56    7.864  2.74
   6909.30    7.864  2.74
   6912.04    7.861  2.74
   6914.78    7.858  2.74
   6917.52    7.854  2.74
   6920.26    7.852  2.74
   6923.00    7.850  2.74
   6925.74    7.846  2.74
   6928.48    7.852  2.74
   6931.22    7.863  2.74
   6933.96    7.863  2.74
   6936.70    7.860  2.74
   6939.44    7.862  2.74
   6942.18    7.859  2.74
   6944.92    7.845  2.74
   6947.66    7.842  2.74
   6950.40    7.847  2.74
   6953.14    7.844  2.74
   6955.88    7.841  2.74
   6958.62    7.849  2.74
   6961.36    7.856  2.74
   6964.10    7.857  2.74
   6966.84    7.855  2.74
   6969.58    7.849  2.74
   6972.32    7.846  2.74
   6975.06    7.845  2.74
   6977.80    7.851  2.74
   6980.54    7.856  2.74
   6983.28    7.852  2.74
   6986.02    7.850  2.74
   6988.76    7.855  2.74
   6991.50    7.852  2.74
   6994.24    7.843  2.74
   6996.98    7.845  2.74
   6999.72    7.851  2.74
   7002.46    7.849  2.74
   7005.20    7.848  2.74
   7007.94    7.852  2.74
   7010.68    7.852  2.74
   7013.42    7.848  2.74
   7016.16    7.848  2.74
   7018.90    7.851  2.74
   7021.64    7.845  2.74
   7024.38    7.841  2.74
   7027.12    7.850  2.74
   7029.86    7.857  2.74
   7032.60    7.855  2.74
   7035.34    7.852  2.74
   7038.08    7.847  2.74
   7040.82    7.843  2.74
   7043.56    7.840  2.74
   7046.30    7.838  2.74
   7049.04    7.838  2.74
   7051.78    7.840  2.74
   7054.52    7.841  2.74
   7057.26    7.841  2.74
   7060.00    7.842  2.74
   7062.74    7.844  2.74
   7065.48    7.844  2.74
   7068.22    7.842  2.74
   7070.96    7.836  2.74
   7073.70    7.834  2.74
   7076.44    7.841  2.74
   7079.18    7.844  2.74
   7081.92    7.843  2.74
   7084.66    7.846  2.74
   7087.40    7.849  2.74
   7090.14    7.848  2.74
   7092.88    7.846  2.74
   7095.62    7.844  2.74
   7098.36    7.844  2.74
   7101.10    7.847  2.74
   7103.84    7.843  2.74
   7106.58    7.835  2.74
   7109.32    7.831  2.74
   7112.06    7.832  2.74
   7114.80    7.842  2.74
   7117.54    7.849  2.74
   7120.28    7.846  2.74
   7123.02    7.846  2.74
   7125.76    7.850  2.74
   7128.50    7.848  2.74
   7131.24    7.844  2.74
   7133.98    7.845  2.74
   7136.72    7.848  2.74
   7139.46    7.852  2.74
   7142.20    7.853  2.74
   7144.94    7.850  2.74
   7147.68    7.849  2.74
   7150.42    7.848  2.74
   7153.16    7.844  2.74
   7155.90    7.839  2.74
   7158.64    7.839  2.74
   7161.38    7.840  2.74
   7164.12    7.845  2.74
   7166.86    7.843  2.74
   7169.60    7.830  2.74
   7172.34    7.833  2.74
   7175.08    7.841  2.74
   7177.82    7.811  2.74
   7180.56    7.787  2.74
   7183.30    7.816  2.74
   7186.04    7.837  2.74
   7188.78    7.835  2.74
   7191.52    7.837  2.74
   7194.26    7.840  2.74
   7197.00    7.841  2.74
   7199.74    7.840  2.74
   7202.48    7.836  2.74
   7205.22    7.835  2.74
   7207.96    7.840  2.74
   7210.70    7.841  2.74
   7213.44    7.839  2.74
   7216.18    7.839  2.74
   7218.92    7.840  2.74
   7221.66    7.837  2.74
   7224.40    7.833  2.74
   7227.14    7.832  2.74
   7229.88    7.831  2.74
   7232.62    7.831  2.74
   7235.36    7.828  2.74
   7238.10    7.821  2.74
   7240.84    7.829  2.74
   7243.58    7.840  2.74
   7246.32    7.836  2.74
   7249.06    7.829  2.74
   7251.80    7.824  2.74
   7254.54    7.824  2.74
   7257.28    7.831  2.74
   7260.02    7.830  2.74
   7262.76    7.825  2.74
   7265.50    7.829  2.74
   7268.24    7.833  2.74
   7270.98    7.829  2.74
   7273.72    7.826  2.74
   7276.46    7.827  2.74
   7279.20    7.826  2.74
   7281.94    7.823  2.74
   7284.68    7.822  2.74
   7287.42    7.822  2.74
   7290.16    7.823  2.74
   7292.90    7.822  2.74
   7295.64    7.814  2.74
   7298.38    7.813  2.74
   7301.12    7.825  2.74
   7303.86    7.824  2.74
   7306.60    7.818  2.74
   7309.34    7.820  2.74
   7312.08    7.823  2.74
   7314.82    7.819  2.74
   7317.56    7.819  2.74
   7320.30    7.828  2.74
   7323.04    7.831  2.74
   7325.78    7.830  2.74
   7328.52    7.827  2.74
   7331.26    7.823  2.74
   7334.00    7.819  2.74
   7336.74    7.817  2.74
   7339.48    7.822  2.74
   7342.22    7.824  2.74
   7344.96    7.823  2.74
   7347.70    7.826  2.74
   7350.44    7.832  2.74
   7353.18    7.830  2.74
   7355.92    7.828  2.74
   7358.66    7.830  2.74
   7361.40    7.829  2.74
   7364.14    7.822  2.74
   7366.88    7.818  2.74
   7369.62    7.819  2.74
   7372.36    7.824  2.74
   7375.10    7.832  2.74
   7377.84    7.825  2.74
   7380.58    7.819  2.74
   7383.32    7.828  2.74
   7386.06    7.833  2.74
   7388.80    7.832  2.74
   7391.54    7.826  2.74
   7394.28    7.814  2.74
   7397.02    7.819  2.74
   7399.76    7.829  2.74
   7402.50    7.828  2.74
   7405.24    7.826  2.74
   7407.98    7.826  2.74
   7410.72    7.831  2.74
   7413.46    7.844  2.74
   7416.20    7.841  2.74
   7418.94    7.831  2.74
   7421.68    7.828  2.74
   7424.42    7.825  2.74
   7427.16    7.819  2.74
   7429.90    7.815  2.74
   7432.64    7.813  2.74
   7435.38    7.814  2.74
   7438.12    7.819  2.74
   7440.86    7.816  2.74
   7443.60    7.812  2.74
   7446.34    7.816  2.74
   7449.08    7.819  2.74
   7451.82    7.819  2.74
   7454.56    7.820  2.74
   7457.30    7.824  2.74
   7460.04    7.825  2.74
   7462.78    7.824  2.74
   7465.52    7.827  2.74
   7468.26    7.831  2.74
   7471.00    7.828  2.74
   7473.74    7.824  2.74
   7476.48    7.817  2.74
   7479.22    7.818  2.74
   7481.96    7.824  2.74
   7484.70    7.826  2.74
   7487.44    7.828  2.74
   7490.18    7.829  2.74
   7492.92    7.829  2.74
   7495.66    7.827  2.74
   7498.40    7.824  2.74
   7501.14    7.818  2.74
   7503.88    7.821  2.74
   7506.62    7.830  2.74
   7509.36    7.835  2.74
   7512.10    7.835  2.74
   7514.84    7.825  2.74
   7517.58    7.818  2.74
   7520.32    7.820  2.74
   7523.06    7.821  2.74
   7525.80    7.820  2.74
   7528.54    7.817  2.74
   7531.28    7.814  2.74
   7534.02    7.818  2.74
   7536.76    7.822  2.74
   7539.50    7.820  2.74
   7542.24    7.817  2.74
   7544.98    7.811  2.74
   7547.72    7.814  2.74
   7550.46    7.822  2.74
   7553.20    7.823  2.74
   7555.94    7.824  2.74
   7558.68    7.832  2.74
   7561.42    7.838  2.74
   7564.16    7.839  2.74
   7566.90    7.838  2.74
   7569.64    7.834  2.74
   7572.38    7.829  2.74
   7575.12    7.824  2.74
   7577.86    7.822  2.74
   7580.60    7.822  2.74
   7583.34    7.825  2.74
   7586.08    7.824  2.74
   7588.82    7.815  2.74
   7591.56    7.817  2.74
   7594.30    7.827  2.74
   7597.04    7.822  2.74
   7599.78    7.815  2.74
   7602.52    7.823  2.74
   7605.26    7.830  2.74
   7608.00    7.831  2.74
   7610.74    7.830  2.74
   7613.48    7.827  2.74
   7616.22    7.826  2.74
   7618.96    7.825  2.74
   7621.70    7.821  2.74
   7624.44    7.817  2.74
   7627.18    7.820  2.74
   7629.92    7.820  2.74
   7632.66    7.815  2.74
   7635.40    7.811  2.74
   7638.14    7.808  2.74
   7640.88    7.814  2.74
   7643.62    7.822  2.74
   7646.36    7.823  2.74
   7649.10    7.822  2.74
   7651.84    7.820  2.74
   7654.58    7.822  2.74
   7657.32    7.831  2.74
   7660.06    7.826  2.74
   7662.80    7.815  2.74
   7665.54    7.819  2.74
   7668.28    7.825  2.74
   7671.02    7.824  2.74
   7673.76    7.823  2.74
   7676.50    7.827  2.74
   7679.24    7.821  2.74
   7681.98    7.809  2.74
   7684.72    7.806  2.74
   7687.46    7.809  2.74
   7690.20    7.817  2.74
   7692.94    7.826  2.74
   7695.68    7.835  2.74
   7698.42    7.835  2.74
   7701.16    7.823  2.74
   7703.90    7.820  2.74
   7706.64    7.820  2.74
   7709.38    7.821  2.74
   7712.12    7.820  2.74
   7714.86    7.815  2.74
   7717.60    7.810  2.74
   7720.34    7.809  2.74
   7723.08    7.808  2.74
   7725.82    7.806  2.74
   7728.56    7.816  2.74
   7731.30    7.828  2.74
   7734.04    7.826  2.74
   7736.78    7.824  2.74
   7739.52    7.831  2.74
   7742.26    7.834  2.74
   7745.00    7.832  2.74
   7747.74    7.833  2.74
   7750.48    7.834  2.74
   7753.22    7.830  2.74
   7755.96    7.825  2.74
   7758.70    7.823  2.74
   7761.44    7.821  2.74
   7764.18    7.816  2.74
   7766.92    7.813  2.74
   7769.66    7.811  2.74
   7772.40    7.812  2.74
   7775.14    7.815  2.74
   7777.88    7.817  2.74
   7780.62    7.821  2.74
   7783.36    7.831  2.74
   7786.10    7.835  2.74
   7788.84    7.827  2.74
   7791.58    7.826  2.74
   7794.32    7.827  2.74
   7797.06    7.821  2.74
   7799.80    7.817  2.74
   7802.54    7.825  2.74
   7805.28    7.830  2.74
   7808.02    7.827  2.74
   7810.76    7.820  2.74
   7813.50    7.807  2.74
   7816.24    7.806  2.74
   7818.98    7.810  2.74
   7821.72    7.811  2.74
   7824.46    7.814  2.74
   7827.20    7.821  2.74
   7829.94    7.824  2.74
   7832.68    7.821  2.74
   7835.42    7.820  2.74
   7838.16    7.819  2.74
   7840.90    7.825  2.74
   7843.64    7.831  2.74
   7846.38    7.825  2.74
   7849.12    7.824  2.74
   7851.86    7.837  2.74
   7854.60    7.837  2.74
   7857.34    7.823  2.74
   7860.08    7.820  2.74
   7862.82    7.822  2.74
   7865.56    7.833  2.74
   7868.30    7.842  2.74
   7871.04    7.840  2.74
   7873.78    7.836  2.74
   7876.52    7.830  2.74
   7879.26    7.825  2.74
   7882.00    7.820  2.74
   7884.74    7.823  2.74
   7887.48    7.828  2.74
   7890.22    7.820  2.74
   7892.96    7.813  2.74
   7895.70    7.809  2.74
   7898.44    7.810  2.74
   7901.18    7.817  2.74
   7903.92    7.821  2.74
   7906.66    7.824  2.74
   7909.40    7.825  2.74
   7912.14    7.828  2.74
   7914.88    7.839  2.74
   7917.62    7.841  2.74
   7920.36    7.828  2.74
   7923.10    7.822  2.74
   7925.84    7.819  2.74
   7928.58    7.817  2.74
   7931.32    7.817  2.74
   7934.06    7.819  2.74
   7936.80    7.820  2.74
   7939.54    7.822  2.74
   7942.28    7.821  2.74
   7945.02    7.816  2.74
   7947.76    7.822  2.74
   7950.50    7.828  2.74
   7953.24    7.790  2.74
   7955.98    7.761  2.74
   7958.72    7.801  2.74
   7961.46    7.825  2.74
   7964.20    7.804  2.74
   7966.94    7.799  2.74
   7969.68    7.801  2.74
   7972.42    7.812  2.74
   7975.16    7.826  2.74
   7977.90    7.831  2.74
   7980.64    7.831  2.74
   7983.38    7.822  2.74
   7986.12    7.817  2.74
   7988.86    7.818  2.74
   7991.60    7.819  2.74
   7994.34    7.820  2.74
   7997.08    7.821  2.74
   7999.82    7.820  2.74
   8002.56    7.808  2.74
   8005.30    7.803  2.74
   8008.04    7.814  2.74
   8010.78    7.819  2.74
   8013.52    7.818  2.74
   8016.26    7.823  2.74
   8019.00    7.829  2.74
   8021.74    7.825  2.74
   8024.48    7.820  2.74
   8027.22    7.817  2.74
   8029.96    7.815  2.74
   8032.70    7.812  2.74
   8035.44    7.812  2.74
   8038.18    7.813  2.74
   8040.92    7.809  2.74
   8043.66    7.806  2.74
   8046.40    7.813  2.74
   8049.14    7.816  2.74
   8051.88    7.810  2.74
   8054.62    7.805  2.74
   8057.36    7.799  2.74
   8060.10    7.805  2.74
   8062.84    7.815  2.74
   8065.58    7.816  2.74
   8068.32    7.814  2.74
   8071.06    7.808  2.74
   8073.80    7.806  2.74
   8076.54    7.810  2.74
   8079.28    7.806  2.74
   8082.02    7.798  2.74
   8084.76    7.802  2.74
   8087.50    7.809  2.74
   8090.24    7.814  2.74
   8092.98    7.817  2.74
   8095.72    7.817  2.74
   8098.46    7.811  2.74
   8101.20    7.798  2.74
   8103.94    7.804  2.74
   8106.68    7.817  2.74
   8109.42    7.818  2.74
   8112.16    7.818  2.74
   8114.90    7.818  2.74
   8117.64    7.818  2.74
   8120.38    7.817  2.74
   8123.12    7.820  2.74
   8125.86    7.825  2.74
   8128.60    7.822  2.74
   8131.34    7.816  2.74
   8134.08    7.811  2.74
   8136.82    7.807  2.74
   8139.56    7.808  2.74
   8142.30    7.808  2.74
   8145.04    7.805  2.74
   8147.78    7.810  2.74
   8150.52    7.818  2.74
   8153.26    7.807  2.74
   8156.00    7.796  2.74
   8158.74    7.796  2.74
   8161.48    7.799  2.74
   8164.22    7.809  2.74
   8166.96    7.809  2.74
   8169.70    7.802  2.74
   8172.44    7.801  2.74
   8175.18    7.801  2.74
   8177.92    7.803  2.74
   8180.66    7.806  2.74
   8183.40    7.810  2.74
   8186.14    7.814  2.74
   8188.88    7.820  2.74
   8191.62    7.818  2.74
   8194.36    7.814  2.74
   8197.10    7.817  2.74
   8199.84    7.821  2.74
   8202.58    7.814  2.74
   8205.32    7.810  2.74
   8208.06    7.809  2.74
   8210.80    7.812  2.74
   8213.54    7.818  2.74
   8216.28    7.816  2.74
   8219.02    7.812  2.74
   8221.76    7.809  2.74
   8224.50    7.806  2.74
   8227.24    7.804  2.74
   8229.98    7.804  2.74
   8232.72    7.806  2.74
   8235.46    7.806  2.74
   8238.20    7.807  2.74
   8240.94    7.818  2.74
   8243.68    7.828  2.74
   8246.42    7.825  2.74
   8249.16    7.821  2.74
   8251.90    7.817  2.74
   8254.64    7.814  2.74
   8257.38    7.814  2.74
   8260.12    7.809  2.74
   8262.86    7.803  2.74
   8265.60    7.800  2.74
   8268.34    7.800  2.74
   8271.08    7.809  2.74
   8273.82    7.815  2.74
   8276.56    7.819  2.74
   8279.30    7.818  2.74
   8282.04    7.814  2.74
   8284.78    7.832  2.74
   8287.52    7.848  2.74
   8290.26    7.826  2.74
   8293.00    7.814  2.74
   8295.74    7.828  2.74
   8298.48    7.831  2.74
   8301.22    7.826  2.74
   8303.96    7.819  2.74
   8306.70    7.812  2.74
   8309.44    7.816  2.74
   8312.18    7.821  2.74
   8314.92    7.820  2.74
   8317.66    7.819  2.74
   8320.40    7.822  2.74
   8323.14    7.818  2.74
   8325.88    7.811  2.74
   8328.62    7.823  2.74
   8331.36    7.833  2.74
   8334.10    7.809  2.74
   8336.84    7.793  2.74
   8339.58    7.803  2.74
   8342.32    7.805  2.74
   8345.06    7.799  2.74
   8347.80    7.798  2.74
   8350.54    7.799  2.74
   8353.28    7.806  2.74
   8356.02    7.815  2.74
   8358.76    7.825  2.74
   8361.50    7.832  2.74
   8364.24    7.836  2.74
   8366.98    7.834  2.74
   8369.72    7.826  2.74
   8372.46    7.821  2.74
   8375.20    7.819  2.74
   8377.94    7.822  2.74
   8380.68    7.825  2.74
   8383.42    7.821  2.74
   8386.16    7.821  2.74
   8388.90    7.826  2.74
   8391.64    7.819  2.74
   8394.38    7.808  2.74
   8397.12    7.804  2.74
   8399.86    7.802  2.74
   8402.60    7.796  2.74
   8405.34    7.793  2.74
   8408.08    7.793  2.74
   8410.82    7.800  2.74
   8413.56    7.815  2.74
   8416.30    7.815  2.74
   8419.04    7.814  2.74
   8421.78    7.832  2.74
   8424.52    7.841  2.74
   8427.26    7.821  2.74
   8430.00    7.808  2.74
   8432.74    7.801  2.74
   8435.48    7.799  2.74
   8438.22    7.802  2.74
   8440.96    7.801  2.74
   8443.70    7.798  2.74
   8446.44    7.786  2.74
   8449.18    7.782  2.74
   8451.92    7.791  2.74
   8454.66    7.795  2.74
   8457.40    7.798  2.74
   8460.14    7.799  2.74
   8462.88    7.800  2.74
   8465.62    7.805  2.74
   8468.36    7.812  2.74
   8471.10    7.822  2.74
   8473.84    7.821  2.74
   8476.58    7.804  2.74
   8479.32    7.805  2.74
   8482.06    7.814  2.74
   8484.80    7.818  2.74
   8487.54    7.823  2.74
   8490.28    7.830  2.74
   8493.02    7.839  2.74
   8495.76    7.859  2.74
   8498.50    7.856  2.74
   8501.24    7.833  2.74
   8503.98    7.821  2.74
   8506.72    7.813  2.74
   8509.46    7.808  2.74
   8512.20    7.804  2.74
   8514.94    7.801  2.74
   8517.68    7.797  2.74
   8520.42    7.790  2.74
   8523.16    7.795  2.74
   8525.90    7.805  2.74
   8528.64    7.802  2.74
   8531.38    7.803  2.74
   8534.12    7.828  2.74
   8536.86    7.852  2.74
   8539.60    7.876  2.74
   8542.34    7.876  2.74
   8545.08    7.852  2.74
   8547.82    7.837  2.74
   8550.56    7.825  2.74
   8553.30    7.823  2.74
   8556.04    7.822  2.74
   8558.78    7.817  2.74
   8561.52    7.814  2.74
   8564.26    7.816  2.74
   8567.00    7.813  2.74
   8569.74    7.807  2.74
   8572.48    7.797  2.74
   8575.22    7.789  2.74
   8577.96    7.795  2.74
   8580.70    7.799  2.74
   8583.44    7.795  2.74
   8586.18    7.802  2.74
   8588.92    7.822  2.74
   8591.66    7.818  2.74
   8594.40    7.806  2.74
   8597.14    7.809  2.74
   8599.88    7.809  2.74
   8602.62    7.786  2.74
   8605.36    7.778  2.74
   8608.10    7.798  2.74
   8610.84    7.795  2.74
   8613.58    7.781  2.74
   8616.32    7.775  2.74
   8619.06    7.774  2.74
   8621.80    7.788  2.74
   8624.54    7.795  2.74
   8627.28    7.782  2.74
   8630.02    7.783  2.74
   8632.76    7.799  2.74
   8635.50    7.804  2.74
   8638.24    7.805  2.74
   8640.98    7.808  2.74
   8643.72    7.810  2.74
   8646.46    7.807  2.74
   8649.20    7.809  2.74
   8651.94    7.819  2.74
   8654.68    7.837  2.74
   8657.42    7.862  2.74
   8660.16    7.868  2.74
   8662.90    7.862  2.74
   8665.64    7.842  2.74
   8668.38    7.819  2.74
   8671.12    7.793  2.74
   8673.86    7.784  2.74
   8676.60    7.792  2.74
   8679.34    7.795  2.74
   8682.08    7.798  2.74
   8684.82    7.800  2.74
   8687.56    7.802  2.74
   8690.30    7.810  2.74
   8693.04    7.808  2.74
   8695.78    7.783  2.74
   8698.52    7.788  2.74
   8701.26    7.814  2.74
   8704.00    7.813  2.74
   8706.74    7.801  2.74
   8709.48    7.798  2.74
   8712.22    7.793  2.74
   8714.96    7.780  2.74
   8717.70    7.782  2.74
   8720.44    7.808  2.74
   8723.18    7.805  2.74
   8725.92    7.788  2.74
   8728.66    7.780  2.74
   8731.40    7.778  2.74
   8734.14    7.788  2.74
   8736.88    7.793  2.74
   8739.62    7.788  2.74
   8742.36    7.788  2.74
   8745.10    7.790  2.74
   8747.84    7.793  2.74
   8750.58    7.798  2.74
   8753.32    7.814  2.74
   8756.06    7.825  2.74
   8758.80    7.820  2.74
   8761.54    7.820  2.74
   8764.28    7.829  2.74
   8767.02    7.817  2.74
   8769.76    7.796  2.74
   8772.50    7.805  2.74
   8775.24    7.818  2.74
   8777.98    7.812  2.74
   8780.72    7.809  2.74
   8783.46    7.812  2.74
   8786.20    7.814  2.74
   8788.94    7.815  2.74
   8791.68    7.805  2.74
   8794.42    7.791  2.74
   8797.16    7.785  2.74
   8799.90    7.785  2.74
   8802.64    7.793  2.74
   8805.38    7.798  2.74
   8808.12    7.799  2.74
   8810.86    7.806  2.74
   8813.60    7.816  2.74
   8816.34    7.811  2.74
   8819.08    7.805  2.74
   8821.82    7.815  2.74
   8824.56    7.818  2.74
   8827.30    7.801  2.74
   8830.04    7.790  2.74
   8832.78    7.784  2.74
   8835.52    7.792  2.74
   8838.26    7.808  2.74
   8841.00    7.813  2.74
   8843.74    7.815  2.74
   8846.48    7.815  2.74
   8849.22    7.818  2.74
   8851.96    7.829  2.74
   8854.70    7.834  2.74
   8857.44    7.836  2.74
   8860.18    7.825  2.74
   8862.92    7.813  2.74
   8865.66    7.816  2.74
   8868.40    7.815  2.74
   8871.14    7.801  2.74
   8873.88    7.798  2.74
   8876.62    7.805  2.74
   8879.36    7.808  2.74
   8882.10    7.809  2.74
   8884.84    7.801  2.74
   8887.58    7.796  2.74
   8890.32    7.804  2.74
   8893.06    7.811  2.74
   8895.80    7.818  2.74
   8898.54    7.818  2.74
   8901.28    7.811  2.74
   8904.02    7.803  2.74
   8906.76    7.795  2.74
   8909.50    7.789  2.74
   8912.24    7.785  2.74
   8914.98    7.786  2.74
   8917.72    7.786  2.74
   8920.46    7.785  2.74
   8923.20    7.787  2.74
   8925.94    7.792  2.74
   8928.68    7.794  2.74
   8931.42    7.800  2.74
   8934.16    7.823  2.74
   8936.90    7.834  2.74
   8939.64    7.826  2.74
   8942.38    7.814  2.74
   8945.12    7.796  2.74
   8947.86    7.793  2.74
   8950.60    7.794  2.74
   8953.34    7.792  2.74
   8956.08    7.789  2.74
   8958.82    7.781  2.74
   8961.56    7.784  2.74
   8964.30    7.803  2.74
   8967.04    7.801  2.74
   8969.78    7.789  2.74
   8972.52    7.798  2.74
   8975.26    7.803  2.74
   8978.00    7.773  2.74
   8980.74    7.762  2.74
   8983.48    7.796  2.74
   8986.22    7.799  2.74
   8988.96    7.778  2.74
   8991.70    7.779  2.74
   8994.44    7.785  2.74
   8997.18    7.784  2.74
   8999.92    7.786  2.74
   9002.66    7.799  2.74
   9005.40    7.809  2.74
   9008.14    7.813  2.74
   9010.88    7.822  2.74
   9013.62    7.833  2.74
   9016.36    7.834  2.74
   9019.10    7.829  2.74
   9021.84    7.818  2.74
   9024.58    7.813  2.74
   9027.32    7.829  2.74
   9030.06    7.821  2.74
   9032.80    7.792  2.74
   9035.54    7.793  2.74
   9038.28    7.802  2.74
   9041.02    7.798  2.74
   9043.76    7.793  2.74
   9046.50    7.791  2.74
   9049.24    7.788  2.74
   9051.98    7.782  2.74
   9054.72    7.782  2.74
   9057.46    7.785  2.74
   9060.20    7.783  2.74
   9062.94    7.783  2.74
   9065.68    7.802  2.74
   9068.42    7.814  2.74
   9071.16    7.807  2.74
   9073.90    7.798  2.74
   9076.64    7.786  2.74
   9079.38    7.785  2.74
   9082.12    7.790  2.74
   9084.86    7.797  2.74
   9087.60    7.801  2.74
   9090.34    7.799  2.74
   9093.08    7.792  2.74
   9095.82    7.777  2.74
   9098.56    7.778  2.74
   9101.30    7.790  2.74
   9104.04    7.785  2.74
   9106.78    7.780  2.74
   9109.52    7.793  2.74
   9112.26    7.800  2.74
   9115.00    7.791  2.74
   9117.74    7.785  2.74
   9120.48    7.783  2.74
   9123.22    7.778  2.74
   9125.96    7.773  2.74
   9128.70    7.768  2.74
   9131.44    7.766  2.74
   9134.18    7.769  2.74
   9136.92    7.776  2.74
   9139.66    7.792  2.74
   9142.40    7.796  2.74
   9145.14    7.794  2.74
   9147.88    7.795  2.74
   9150.62    7.799  2.74
   9153.36    7.811  2.74
   9156.10    7.816  2.74
   9158.84    7.805  2.74
   9161.58    7.802  2.74
   9164.32    7.806  2.74
   9167.06    7.804  2.74
   9169.80    7.798  2.74
   9172.54    7.790  2.74
   9175.28    7.783  2.74
   9178.02    7.782  2.74
   9180.76    7.781  2.74
   9183.50    7.779  2.74
   9186.24    7.775  2.74
   9188.98    7.769  2.74
   9191.72    7.768  2.74
   9194.46    7.771  2.74
   9197.20    7.779  2.74
   9199.94    7.787  2.74
   9202.68    7.785  2.74
   9205.42    7.791  2.74
   9208.16    7.810  2.74
   9210.90    7.819  2.74
   9213.64    7.825  2.74
   9216.38    7.828  2.74
   9219.12    7.830  2.74
   9221.86    7.827  2.74
   9224.60    7.830  2.74
   9227.34    7.847  2.74
   9230.08    7.844  2.74
   9232.82    7.826  2.74
   9235.56    7.814  2.74
   9238.30    7.806  2.74
   9241.04    7.809  2.74
   9243.78    7.809  2.74
   9246.52    7.799  2.74
   9249.26    7.790  2.74
   9252.00    7.780  2.74
   9254.74    7.778  2.74
   9257.48    7.779  2.74
   9260.22    7.774  2.74
   9262.96    7.770  2.74
   9265.70    7.776  2.74
   9268.44    7.786  2.74
   9271.18    7.801  2.74
   9273.92    7.806  2.74
   9276.66    7.801  2.74
   9279.40    7.812  2.74
   9282.14    7.824  2.74
   9284.88    7.810  2.74
   9287.62    7.797  2.74
   9290.36    7.795  2.74
   9293.10    7.802  2.74
   9295.84    7.828  2.74
   9298.58    7.822  2.74
   9301.32    7.800  2.74
   9304.06    7.797  2.74
   9306.80    7.801  2.74
   9309.54    7.809  2.74
   9312.28    7.810  2.74
   9315.02    7.798  2.74
   9317.76    7.789  2.74
   9320.50    7.782  2.74
   9323.24    7.783  2.74
   9325.98    7.786  2.74
   9328.72    7.778  2.74
   9331.46    7.770  2.74
   9334.20    7.769  2.74
   9336.94    7.773  2.74
   9339.68    7.784  2.74
   9342.42    7.787  2.74
   9345.16    7.785  2.74
   9347.90    7.792  2.74
   9350.64    7.801  2.74
   9353.38    7.802  2.74
   9356.12    7.799  2.74
   9358.86    7.795  2.74
   9361.60    7.791  2.74
   9364.34    7.789  2.74
   9367.08    7.786  2.74
   9369.82    7.785  2.74
   9372.56    7.792  2.74
   9375.30    7.805  2.74
   9378.04    7.827  2.74
   9380.78    7.835  2.74
   9383.52    7.820  2.74
   9386.26    7.812  2.74
   9389.00    7.804  2.74
   9391.74    7.798  2.74
   9394.48    7.794  2.74
   9397.22    7.799  2.74
   9399.96    7.800  2.74
   9402.70    7.791  2.74
   9405.44    7.787  2.74
   9408.18    7.790  2.74
   9410.92    7.786  2.74
   9413.66    7.781  2.74
   9416.40    7.792  2.74
   9419.14    7.801  2.74
   9421.88    7.785  2.74
   9424.62    7.778  2.74
   9427.36    7.784  2.74
   9430.10    7.791  2.74
   9432.84    7.799  2.74
   9435.58    7.804  2.74
   9438.32    7.806  2.74
   9441.06    7.802  2.74
   9443.80    7.801  2.74
   9446.54    7.808  2.74
   9449.28    7.809  2.74
   9452.02    7.804  2.74
   9454.76    7.799  2.74
   9457.50    7.794  2.74
   9460.24    7.791  2.74
   9462.98    7.790  2.74
   9465.72    7.792  2.74
   9468.46    7.794  2.74
   9471.20    7.798  2.74
   9473.94    7.796  2.74
   9476.68    7.788  2.74
   9479.42    7.792  2.74
   9482.16    7.799  2.74
   9484.90    7.809  2.74
   9487.64    7.815  2.74
   9490.38    7.810  2.74
   9493.12    7.808  2.74
   9495.86    7.811  2.74
   9498.60    7.806  2.74
   9501.34    7.800  2.74
   9504.08    7.806  2.74
   9506.82    7.814  2.74
   9509.56    7.814  2.74
   9512.30    7.807  2.74
   9515.04    7.789  2.74
   9517.78    7.791  2.74
   9520.52    7.812  2.74
   9523.26    7.807  2.74
   9526.00    7.795  2.74
   9528.74    7.798  2.74
   9531.48    7.804  2.74
   9534.22    7.805  2.74
   9536.96    7.813  2.74
   9539.70    7.830  2.74
   9542.44    7.843  2.74
   9545.18    7.853  2.74
   9547.92    7.865  2.74
   9550.66    7.866  2.74
   9553.40    7.834  2.74
   9556.14    7.817  2.74
   9558.88    7.836  2.74
   9561.62    7.836  2.74
   9564.36    7.822  2.74
   9567.10    7.813  2.74
   9569.84    7.806  2.74
   9572.58    7.815  2.74
   9575.32    7.824  2.74
   9578.06    7.817  2.74
   9580.80    7.816  2.74
   9583.54    7.824  2.74
   9586.28    7.825  2.74
   9589.02    7.823  2.74
   9591.76    7.816  2.74
   9594.50    7.809  2.74
   9597.24    7.802  2.74
   9599.98    7.798  2.74
   9602.72    7.797  2.74
   9605.46    7.799  2.74
   9608.20    7.805  2.74
   9610.94    7.797  2.74
   9613.68    7.784  2.74
   9616.42    7.777  2.74
   9619.16    7.778  2.74
   9621.90    7.802  2.74
   9624.64    7.811  2.74
   9627.38    7.793  2.74
   9630.12    7.790  2.74
   9632.86    7.792  2.74
   9635.60    7.800  2.74
   9638.34    7.811  2.74
   9641.08    7.822  2.74
   9643.82    7.831  2.74
   9646.56    7.837  2.74
   9649.30    7.836  2.74
   9652.04    7.826  2.74
   9654.78    7.824  2.74
   9657.52    7.823  2.74
   9660.26    7.814  2.74
   9663.00    7.808  2.74
   9665.74    7.810  2.74
   9668.48    7.813  2.74
   9671.22    7.818  2.74
   9673.96    7.819  2.74
   9676.70    7.819  2.74
   9679.44    7.823  2.74
   9682.18    7.827  2.74
   9684.92    7.825  2.74
   9687.66    7.824  2.74
   9690.40    7.826  2.74
   9693.14    7.820  2.74
   9695.88    7.803  2.74
   9698.62    7.798  2.74
   9701.36    7.798  2.74
   9704.10    7.791  2.74
   9706.84    7.788  2.74
   9709.58    7.805  2.74
   9712.32    7.813  2.74
   9715.06    7.799  2.74
   9717.80    7.805  2.74
   9720.54    7.825  2.74
   9723.28    7.828  2.74
   9726.02    7.824  2.74
   9728.76    7.817  2.74
   9731.50    7.814  2.74
   9734.24    7.825  2.74
   9736.98    7.827  2.74
   9739.72    7.815  2.74
   9742.46    7.827  2.74
   9745.20    7.848  2.74
   9747.94    7.831  2.74
   9750.68    7.810  2.74
   9753.42    7.805  2.74
   9756.16    7.806  2.74
   9758.90    7.811  2.74
   9761.64    7.817  2.74
   9764.38    7.825  2.74
   9767.12    7.828  2.74
   9769.86    7.828  2.74
   9772.60    7.820  2.74
   9775.34    7.814  2.74
   9778.08    7.816  2.74
   9780.82    7.814  2.74
   9783.56    7.806  2.74
   9786.30    7.809  2.74
   9789.04    7.818  2.74
   9791.78    7.808  2.74
   9794.52    7.798  2.74
   9797.26    7.802  2.74
   9800.00    7.806  2.74
   9802.74    7.808  2.74
   9805.48    7.801  2.74
   9808.22    7.784  2.74
   9810.96    7.794  2.74
   9813.70    7.815  2.74
   9816.44    7.818  2.74
   9819.18    7.817  2.74
   9821.92    7.817  2.74
   9824.66    7.817  2.74
   9827.40    7.818  2.74
   9830.14    7.811  2.74
   9832.88    7.798  2.74
   9835.62    7.798  2.74
   9838.36    7.799  2.74
   9841.10    7.782  2.74
   9843.84    7.774  2.74
   9846.58    7.791  2.74
   9849.32    7.793  2.74
   9852.06    7.783  2.74
   9854.80    7.786  2.74
   9857.54    7.794  2.74
   9860.28    7.792  2.74
   9863.02    7.787  2.74
   9865.76    7.771  2.74
   9868.50    7.772  2.74
   9871.24    7.805  2.74
   9873.98    7.806  2.74
   9876.72    7.790  2.74
   9879.46    7.802  2.74
   9882.20    7.818  2.74
   9884.94    7.813  2.74
   9887.68    7.807  2.74
   9890.42    7.802  2.74
   9893.16    7.804  2.74
   9895.90    7.818  2.74
   9898.64    7.803  2.74
   9901.38    7.781  2.74
   9904.12    7.800  2.74
   9906.86    7.821  2.74
   9909.60    7.815  2.74
   9912.34    7.808  2.74
   9915.08    7.803  2.74
   9917.82    7.794  2.74
   9920.56    7.783  2.74
   9923.30    7.790  2.74
   9926.04    7.805  2.74
   9928.78    7.824  2.74
   9931.52    7.826  2.74
   9934.26    7.784  2.74
   9937.00    7.776  2.74
   9939.74    7.806  2.74
   9942.48    7.807  2.74
   9945.22    7.796  2.74
   9947.96    7.794  2.74
   9950.70    7.792  2.74
   9953.44    7.788  2.74
   9956.18    7.791  2.74
   9958.92    7.814  2.74
   9961.66    7.811  2.74
   9964.40    7.790  2.74
   9967.14    7.787  2.74
   9969.88    7.791  2.74
   9972.62    7.793  2.74
   9975.36    7.802  2.74
   9978.10    7.834  2.74
   9980.84    7.832  2.74
   9983.58    7.786  2.74
   9986.32    7.779  2.74
   9989.06    7.787  2.74
   9991.80    7.786  2.74
   9994.54    7.785  2.74
   9997.28    7.796  2.74
  10000.02    7.800  2.74
  10002.76    7.789  2.74
  10005.50    7.786  2.74
  10008.24    7.788  2.74
  10010.98    7.798  2.74
  10013.72    7.809  2.74
  10016.46    7.794  2.74
  10019.20    7.787  2.74
  10021.94    7.806  2.74
  10024.68    7.822  2.74
  10027.42    7.833  2.74
  10030.16    7.841  2.74
  10032.90    7.846  2.74
  10035.64    7.843  2.74
  10038.38    7.840  2.74
  10041.12    7.851  2.74
  10043.86    7.856  2.74
  10046.60    7.848  2.74
  10049.34    7.851  2.74
  10052.08    7.866  2.74
  10054.82    7.856  2.74
  10057.56    7.836  2.74
  10060.30    7.819  2.74
  10063.04    7.803  2.74
  10065.78    7.787  2.74
  10068.52    7.792  2.74
  10071.26    7.839  2.74
  10074.00    7.834  2.74
  10076.74    7.802  2.74
  10079.48    7.802  2.74
  10082.22    7.808  2.74
  10084.96    7.799  2.74
  10087.70    7.786  2.74
  10090.44    7.762  2.74
  10093.18    7.762  2.74
  10095.92    7.786  2.74
  10098.66    7.781  2.74
  10101.40    7.767  2.74
  10104.14    7.769  2.74
  10106.88    7.777  2.74
  10109.62    7.784  2.74
  10112.36    7.799  2.74
  10115.10    7.833  2.74
  10117.84    7.820  2.74
  10120.58    7.780  2.74
  10123.32    7.825  2.74
  10126.06    7.879  2.74
  10128.80    7.837  2.74
  10131.54    7.799  2.74
  10134.28    7.792  2.74
  10137.02    7.803  2.74
  10139.76    7.839  2.74
  10142.50    7.818  2.74
  10145.24    7.780  2.74
  10147.98    7.816  2.74
  10150.72    7.853  2.74
  10153.46    7.833  2.74
  10156.20    7.825  2.74
  10158.94    7.844  2.74
  10161.68    7.849  2.74
  10164.42    7.847  2.74
  10167.16    7.840  2.74
  10169.90    7.828  2.74
  10172.64    7.809  2.74
  10175.38    7.799  2.74
  10178.12    7.810  2.74
  10180.86    7.813  2.74
  10183.60    7.806  2.74
  10186.34    7.758  2.74
  10189.08    7.760  2.74
  10191.82    8.603  2.74
  10194.56-NaN       2.74
  10197.30-NaN       2.74
  10200.04Inf        2.74
  10202.78Inf        2.74
  10205.52Inf        2.74
