#HD029574                                                    
#                                                            
#  Heap-Lindler STIS                                         
# wavelength  ABmag  band
   2950.00   14.735  2.74
   2952.74   14.619  2.74
   2955.48   14.553  2.74
   2958.22   14.456  2.74
   2960.96   14.491  2.74
   2963.70   14.535  2.74
   2966.44   14.778  2.74
   2969.18   14.761  2.74
   2971.92   14.609  2.74
   2974.66   14.416  2.74
   2977.40   14.351  2.74
   2980.14   14.522  2.74
   2982.88   14.720  2.74
   2985.62   14.658  2.74
   2988.36   14.368  2.74
   2991.10   14.253  2.74
   2993.84   14.251  2.74
   2996.58   14.250  2.74
   2999.32   14.586  2.74
   3002.06   14.420  2.74
   3004.80   14.304  2.74
   3007.54   14.359  2.74
   3010.28   14.066  2.74
   3013.02   14.272  2.74
   3015.76   14.287  2.74
   3018.50   14.447  2.74
   3021.24   14.638  2.74
   3023.98   14.192  2.74
   3026.72   14.021  2.74
   3029.46   14.080  2.74
   3032.20   14.011  2.74
   3034.94   13.958  2.74
   3037.68   14.143  2.74
   3040.42   14.033  2.74
   3043.16   14.029  2.74
   3045.90   14.006  2.74
   3048.64   14.009  2.74
   3051.38   13.889  2.74
   3054.12   14.046  2.74
   3056.86   14.163  2.74
   3059.60   14.281  2.74
   3062.34   14.251  2.74
   3065.08   14.305  2.74
   3067.82   14.606  2.74
   3070.56   14.192  2.74
   3073.30   14.079  2.74
   3076.04   13.983  2.74
   3078.78   13.766  2.74
   3081.52   13.939  2.74
   3084.26   14.184  2.74
   3087.00   14.046  2.74
   3089.74   14.224  2.74
   3092.48   14.257  2.74
   3095.22   14.202  2.74
   3097.96   14.333  2.74
   3100.70   14.236  2.74
   3103.44   13.888  2.74
   3106.18   13.784  2.74
   3108.92   13.835  2.74
   3111.66   13.795  2.74
   3114.40   13.759  2.74
   3117.14   13.820  2.74
   3119.88   14.057  2.74
   3122.62   14.138  2.74
   3125.36   13.993  2.74
   3128.10   14.121  2.74
   3130.84   14.062  2.74
   3133.58   13.749  2.74
   3136.32   13.972  2.74
   3139.06   13.732  2.74
   3141.80   13.724  2.74
   3144.54   14.048  2.74
   3147.28   13.792  2.74
   3150.02   13.652  2.74
   3152.76   13.701  2.74
   3155.50   13.599  2.74
   3158.24   13.734  2.74
   3160.98   13.878  2.74
   3163.72   13.697  2.74
   3166.46   13.597  2.74
   3169.20   13.565  2.74
   3171.94   13.320  2.74
   3174.68   13.384  2.74
   3177.42   13.326  2.74
   3180.16   13.501  2.74
   3182.90   13.775  2.74
   3185.64   13.676  2.74
   3188.38   13.480  2.74
   3191.12   13.631  2.74
   3193.86   13.533  2.74
   3196.60   13.432  2.74
   3199.34   13.318  2.74
   3202.08   13.197  2.74
   3204.82   13.160  2.74
   3207.56   13.258  2.74
   3210.30   13.333  2.74
   3213.04   13.476  2.74
   3215.78   13.488  2.74
   3218.52   13.306  2.74
   3221.26   13.373  2.74
   3224.00   13.401  2.74
   3226.74   13.457  2.74
   3229.48   13.572  2.74
   3232.22   13.377  2.74
   3234.96   13.480  2.74
   3237.70   13.378  2.74
   3240.44   13.208  2.74
   3243.18   13.154  2.74
   3245.92   13.220  2.74
   3248.66   13.189  2.74
   3251.40   13.194  2.74
   3254.14   13.064  2.74
   3256.88   12.827  2.74
   3259.62   12.795  2.74
   3262.36   12.936  2.74
   3265.10   12.923  2.74
   3267.84   12.882  2.74
   3270.58   12.845  2.74
   3273.32   12.894  2.74
   3276.06   12.938  2.74
   3278.80   12.915  2.74
   3281.54   12.880  2.74
   3284.28   12.903  2.74
   3287.02   12.889  2.74
   3289.76   12.773  2.74
   3292.50   12.611  2.74
   3295.24   12.576  2.74
   3297.98   12.712  2.74
   3300.72   12.711  2.74
   3303.46   12.743  2.74
   3306.20   12.823  2.74
   3308.94   12.814  2.74
   3311.68   12.830  2.74
   3314.42   12.799  2.74
   3317.16   12.750  2.74
   3319.90   12.797  2.74
   3322.64   12.796  2.74
   3325.38   12.718  2.74
   3328.12   12.789  2.74
   3330.86   12.793  2.74
   3333.60   12.776  2.74
   3336.34   12.942  2.74
   3339.08   12.855  2.74
   3341.82   12.782  2.74
   3344.56   12.733  2.74
   3347.30   12.702  2.74
   3350.04   12.726  2.74
   3352.78   12.678  2.74
   3355.52   12.675  2.74
   3358.26   12.949  2.74
   3361.00   13.180  2.74
   3363.74   12.885  2.74
   3366.48   12.805  2.74
   3369.22   12.993  2.74
   3371.96   13.029  2.74
   3374.70   12.881  2.74
   3377.44   12.686  2.74
   3380.18   12.756  2.74
   3382.92   12.759  2.74
   3385.66   12.791  2.74
   3388.40   12.712  2.74
   3391.14   12.708  2.74
   3393.88   12.693  2.74
   3396.62   12.497  2.74
   3399.36   12.358  2.74
   3402.10   12.342  2.74
   3404.84   12.483  2.74
   3407.58   12.508  2.74
   3410.32   12.521  2.74
   3413.06   12.532  2.74
   3415.80   12.481  2.74
   3418.54   12.360  2.74
   3421.28   12.320  2.74
   3424.02   12.339  2.74
   3426.76   12.304  2.74
   3429.50   12.191  2.74
   3432.24   12.275  2.74
   3434.98   12.254  2.74
   3437.72   12.257  2.74
   3440.46   12.414  2.74
   3443.20   12.505  2.74
   3445.94   12.302  2.74
   3448.68   12.148  2.74
   3451.42   12.179  2.74
   3454.16   12.203  2.74
   3456.90   12.155  2.74
   3459.64   12.205  2.74
   3462.38   12.166  2.74
   3465.12   12.116  2.74
   3467.86   12.104  2.74
   3470.60   12.061  2.74
   3473.34   12.191  2.74
   3476.08   12.341  2.74
   3478.82   12.156  2.74
   3481.56   12.105  2.74
   3484.30   12.131  2.74
   3487.04   11.993  2.74
   3489.78   12.085  2.74
   3492.52   12.132  2.74
   3495.26   12.155  2.74
   3498.00   12.137  2.74
   3500.74   11.965  2.74
   3503.48   11.859  2.74
   3506.22   11.995  2.74
   3508.96   11.918  2.74
   3511.70   11.997  2.74
   3514.44   12.034  2.74
   3517.18   11.881  2.74
   3519.92   11.931  2.74
   3522.66   12.092  2.74
   3525.40   12.106  2.74
   3528.14   12.030  2.74
   3530.88   11.908  2.74
   3533.62   11.825  2.74
   3536.36   11.812  2.74
   3539.10   11.749  2.74
   3541.84   11.727  2.74
   3544.58   11.707  2.74
   3547.32   11.744  2.74
   3550.06   11.766  2.74
   3552.80   11.816  2.74
   3555.54   11.754  2.74
   3558.28   11.709  2.74
   3561.02   11.780  2.74
   3563.76   11.760  2.74
   3566.50   11.934  2.74
   3569.24   11.939  2.74
   3571.98   11.913  2.74
   3574.72   11.889  2.74
   3577.46   11.858  2.74
   3580.20   11.867  2.74
   3582.94   11.935  2.74
   3585.68   12.044  2.74
   3588.42   12.032  2.74
   3591.16   11.878  2.74
   3593.90   11.717  2.74
   3596.64   11.629  2.74
   3599.38   11.611  2.74
   3602.12   11.651  2.74
   3604.86   11.670  2.74
   3607.60   11.690  2.74
   3610.34   11.822  2.74
   3613.08   11.753  2.74
   3615.82   11.661  2.74
   3618.56   11.736  2.74
   3621.30   11.674  2.74
   3624.04   11.564  2.74
   3626.78   11.500  2.74
   3629.52   11.559  2.74
   3632.26   11.705  2.74
   3635.00   11.685  2.74
   3637.74   11.541  2.74
   3640.48   11.476  2.74
   3643.22   11.559  2.74
   3645.96   11.597  2.74
   3648.70   11.597  2.74
   3651.44   11.561  2.74
   3654.18   11.488  2.74
   3656.92   11.427  2.74
   3659.66   11.404  2.74
   3662.40   11.413  2.74
   3665.14   11.401  2.74
   3667.88   11.413  2.74
   3670.62   11.461  2.74
   3673.36   11.360  2.74
   3676.10   11.356  2.74
   3678.84   11.398  2.74
   3681.58   11.379  2.74
   3684.32   11.381  2.74
   3687.06   11.429  2.74
   3689.80   11.391  2.74
   3692.54   11.282  2.74
   3695.28   11.264  2.74
   3698.02   11.231  2.74
   3700.76   11.188  2.74
   3703.50   11.297  2.74
   3706.24   11.468  2.74
   3708.98   11.435  2.74
   3711.72   11.283  2.74
   3714.46   11.154  2.74
   3717.20   11.215  2.74
   3719.94   11.397  2.74
   3722.68   11.443  2.74
   3725.42   11.267  2.74
   3728.16   11.298  2.74
   3730.90   11.325  2.74
   3733.64   11.477  2.74
   3736.38   11.530  2.74
   3739.12   11.376  2.74
   3741.86   11.318  2.74
   3744.60   11.383  2.74
   3747.34   11.501  2.74
   3750.08   11.465  2.74
   3752.82   11.261  2.74
   3755.56   11.132  2.74
   3758.30   11.304  2.74
   3761.04   11.270  2.74
   3763.78   11.174  2.74
   3766.52   11.154  2.74
   3769.26   11.115  2.74
   3772.00   11.081  2.74
   3774.74   11.043  2.74
   3777.48   11.065  2.74
   3780.22   10.985  2.74
   3782.96   10.968  2.74
   3785.70   11.030  2.74
   3788.44   11.167  2.74
   3791.18   11.141  2.74
   3793.92   11.168  2.74
   3796.66   11.213  2.74
   3799.40   11.188  2.74
   3802.14   10.978  2.74
   3804.88   10.933  2.74
   3807.62   10.977  2.74
   3810.36   10.958  2.74
   3813.10   11.023  2.74
   3815.84   11.112  2.74
   3818.58   11.125  2.74
   3821.32   11.195  2.74
   3824.06   11.197  2.74
   3826.80   11.247  2.74
   3829.54   11.188  2.74
   3832.28   11.211  2.74
   3835.02   11.244  2.74
   3837.76   11.193  2.74
   3840.50   11.150  2.74
   3843.24   11.025  2.74
   3845.98   10.979  2.74
   3848.72   10.994  2.74
   3851.46   10.998  2.74
   3854.20   10.958  2.74
   3856.94   11.015  2.74
   3859.68   11.086  2.74
   3862.42   10.966  2.74
   3865.16   10.895  2.74
   3867.90   10.896  2.74
   3870.64   10.977  2.74
   3873.38   11.049  2.74
   3876.12   10.980  2.74
   3878.86   11.003  2.74
   3881.60   11.019  2.74
   3884.34   11.005  2.74
   3887.08   11.012  2.74
   3889.82   10.984  2.74
   3892.56   10.884  2.74
   3895.30   10.896  2.74
   3898.04   10.888  2.74
   3900.78   10.862  2.74
   3903.52   10.860  2.74
   3906.26   10.924  2.74
   3909.00   10.841  2.74
   3911.74   10.783  2.74
   3914.48   10.806  2.74
   3917.22   10.865  2.74
   3919.96   10.968  2.74
   3922.70   11.019  2.74
   3925.44   11.123  2.74
   3928.18   11.468  2.74
   3930.92   11.969  2.74
   3933.66   12.302  2.74
   3936.40   12.028  2.74
   3939.14   11.518  2.74
   3941.88   11.201  2.74
   3944.62   11.005  2.74
   3947.36   10.893  2.74
   3950.10   10.837  2.74
   3952.84   10.786  2.74
   3955.58   10.763  2.74
   3958.32   10.782  2.74
   3961.06   10.914  2.74
   3963.80   11.240  2.74
   3966.54   11.731  2.74
   3969.28   11.925  2.74
   3972.02   11.475  2.74
   3974.76   10.997  2.74
   3977.50   10.742  2.74
   3980.24   10.616  2.74
   3982.98   10.583  2.74
   3985.72   10.499  2.74
   3988.46   10.472  2.74
   3991.20   10.450  2.74
   3993.94   10.462  2.74
   3996.68   10.530  2.74
   3999.42   10.465  2.74
   4002.16   10.381  2.74
   4004.90   10.428  2.74
   4007.64   10.401  2.74
   4010.38   10.366  2.74
   4013.12   10.336  2.74
   4015.86   10.294  2.74
   4018.60   10.305  2.74
   4021.34   10.329  2.74
   4024.08   10.326  2.74
   4026.82   10.269  2.74
   4029.56   10.313  2.74
   4032.30   10.369  2.74
   4035.04   10.296  2.74
   4037.78   10.221  2.74
   4040.52   10.237  2.74
   4043.26   10.299  2.74
   4046.00   10.326  2.74
   4048.74   10.252  2.74
   4051.48   10.222  2.74
   4054.22   10.234  2.74
   4056.96   10.250  2.74
   4059.70   10.223  2.74
   4062.44   10.267  2.74
   4065.18   10.263  2.74
   4067.92   10.232  2.74
   4070.66   10.213  2.74
   4073.40   10.230  2.74
   4076.14   10.312  2.74
   4078.88   10.296  2.74
   4081.62   10.210  2.74
   4084.36   10.190  2.74
   4087.10   10.132  2.74
   4089.84   10.076  2.74
   4092.58   10.069  2.74
   4095.32   10.112  2.74
   4098.06   10.164  2.74
   4100.80   10.269  2.74
   4103.54   10.225  2.74
   4106.28   10.142  2.74
   4109.02   10.137  2.74
   4111.76   10.129  2.74
   4114.50   10.090  2.74
   4117.24   10.106  2.74
   4119.98   10.133  2.74
   4122.72   10.121  2.74
   4125.46   10.092  2.74
   4128.20   10.127  2.74
   4130.94   10.160  2.74
   4133.68   10.167  2.74
   4136.42   10.090  2.74
   4139.16   10.035  2.74
   4141.90   10.124  2.74
   4144.64   10.128  2.74
   4147.38   10.069  2.74
   4150.12   10.071  2.74
   4152.86   10.083  2.74
   4155.60   10.070  2.74
   4158.34   10.012  2.74
   4161.08    9.972  2.74
   4163.82    9.968  2.74
   4166.56    9.974  2.74
   4169.30   10.005  2.74
   4172.04   10.100  2.74
   4174.78   10.106  2.74
   4177.52   10.065  2.74
   4180.26   10.014  2.74
   4183.00    9.991  2.74
   4185.74    9.992  2.74
   4188.48   10.002  2.74
   4191.22    9.991  2.74
   4193.96    9.962  2.74
   4196.70   10.015  2.74
   4199.44   10.067  2.74
   4202.18   10.062  2.74
   4204.92   10.043  2.74
   4207.66    9.975  2.74
   4210.40    9.922  2.74
   4213.14    9.920  2.74
   4215.88    9.945  2.74
   4218.62    9.918  2.74
   4221.36    9.912  2.74
   4224.10   10.015  2.74
   4226.84   10.052  2.74
   4229.58    9.949  2.74
   4232.32    9.925  2.74
   4235.06    9.957  2.74
   4237.80    9.945  2.74
   4240.54    9.884  2.74
   4243.28    9.858  2.74
   4246.02    9.900  2.74
   4248.76    9.933  2.74
   4251.50    9.898  2.74
   4254.24    9.877  2.74
   4256.98    9.873  2.74
   4259.72    9.890  2.74
   4262.46    9.837  2.74
   4265.20    9.781  2.74
   4267.94    9.813  2.74
   4270.68    9.892  2.74
   4273.42    9.900  2.74
   4276.16    9.826  2.74
   4278.90    9.822  2.74
   4281.64    9.845  2.74
   4284.38    9.864  2.74
   4287.12    9.935  2.74
   4289.86    9.924  2.74
   4292.60    9.908  2.74
   4295.34    9.942  2.74
   4298.08   10.029  2.74
   4300.82   10.104  2.74
   4303.56   10.074  2.74
   4306.30   10.058  2.74
   4309.04   10.046  2.74
   4311.78    9.970  2.74
   4314.52    9.853  2.74
   4317.26    9.734  2.74
   4320.00    9.710  2.74
   4322.74    9.766  2.74
   4325.48    9.781  2.74
   4328.22    9.720  2.74
   4330.96    9.673  2.74
   4333.70    9.666  2.74
   4336.44    9.740  2.74
   4339.18    9.857  2.74
   4341.92    9.798  2.74
   4344.66    9.692  2.74
   4347.40    9.646  2.74
   4350.14    9.688  2.74
   4352.88    9.687  2.74
   4355.62    9.636  2.74
   4358.36    9.635  2.74
   4361.10    9.615  2.74
   4363.84    9.581  2.74
   4366.58    9.609  2.74
   4369.32    9.634  2.74
   4372.06    9.661  2.74
   4374.80    9.684  2.74
   4377.54    9.631  2.74
   4380.28    9.624  2.74
   4383.02    9.710  2.74
   4385.76    9.708  2.74
   4388.50    9.656  2.74
   4391.24    9.615  2.74
   4393.98    9.602  2.74
   4396.72    9.606  2.74
   4399.46    9.620  2.74
   4402.20    9.620  2.74
   4404.94    9.624  2.74
   4407.68    9.644  2.74
   4410.42    9.578  2.74
   4413.16    9.556  2.74
   4415.90    9.591  2.74
   4418.64    9.563  2.74
   4421.38    9.541  2.74
   4424.12    9.544  2.74
   4426.86    9.557  2.74
   4429.60    9.562  2.74
   4432.34    9.564  2.74
   4435.08    9.557  2.74
   4437.82    9.505  2.74
   4440.56    9.518  2.74
   4443.30    9.577  2.74
   4446.04    9.549  2.74
   4448.78    9.512  2.74
   4451.52    9.516  2.74
   4454.26    9.536  2.74
   4457.00    9.540  2.74
   4459.74    9.537  2.74
   4462.48    9.519  2.74
   4465.22    9.499  2.74
   4467.96    9.503  2.74
   4470.70    9.467  2.74
   4473.44    9.404  2.74
   4476.18    9.379  2.74
   4478.92    9.394  2.74
   4481.66    9.412  2.74
   4484.40    9.393  2.74
   4487.14    9.389  2.74
   4489.88    9.399  2.74
   4492.62    9.396  2.74
   4495.36    9.406  2.74
   4498.10    9.385  2.74
   4500.84    9.349  2.74
   4503.58    9.328  2.74
   4506.32    9.312  2.74
   4509.06    9.309  2.74
   4511.80    9.322  2.74
   4514.54    9.336  2.74
   4517.28    9.352  2.74
   4520.02    9.364  2.74
   4522.76    9.384  2.74
   4525.50    9.389  2.74
   4528.24    9.401  2.74
   4530.98    9.423  2.74
   4533.72    9.420  2.74
   4536.46    9.370  2.74
   4539.20    9.314  2.74
   4541.94    9.326  2.74
   4544.68    9.349  2.74
   4547.42    9.367  2.74
   4550.16    9.370  2.74
   4552.90    9.365  2.74
   4555.64    9.339  2.74
   4558.38    9.287  2.74
   4561.12    9.281  2.74
   4563.86    9.296  2.74
   4566.60    9.272  2.74
   4569.34    9.269  2.74
   4572.08    9.274  2.74
   4574.82    9.255  2.74
   4577.56    9.267  2.74
   4580.30    9.288  2.74
   4583.04    9.286  2.74
   4585.78    9.257  2.74
   4588.52    9.242  2.74
   4591.26    9.256  2.74
   4594.00    9.249  2.74
   4596.74    9.234  2.74
   4599.48    9.244  2.74
   4602.22    9.240  2.74
   4604.96    9.214  2.74
   4607.70    9.184  2.74
   4610.44    9.178  2.74
   4613.18    9.198  2.74
   4615.92    9.197  2.74
   4618.66    9.179  2.74
   4621.40    9.162  2.74
   4624.14    9.164  2.74
   4626.88    9.175  2.74
   4629.62    9.168  2.74
   4632.36    9.162  2.74
   4635.10    9.166  2.74
   4637.84    9.156  2.74
   4640.58    9.140  2.74
   4643.32    9.149  2.74
   4646.06    9.163  2.74
   4648.80    9.164  2.74
   4651.54    9.164  2.74
   4654.28    9.179  2.74
   4657.02    9.153  2.74
   4659.76    9.112  2.74
   4662.50    9.116  2.74
   4665.24    9.153  2.74
   4667.98    9.178  2.74
   4670.72    9.144  2.74
   4673.46    9.113  2.74
   4676.20    9.107  2.74
   4678.94    9.118  2.74
   4681.68    9.123  2.74
   4684.42    9.100  2.74
   4687.16    9.087  2.74
   4689.90    9.079  2.74
   4692.64    9.065  2.74
   4695.38    9.055  2.74
   4698.12    9.072  2.74
   4700.86    9.088  2.74
   4703.60    9.107  2.74
   4706.34    9.117  2.74
   4709.08    9.104  2.74
   4711.82    9.072  2.74
   4714.56    9.060  2.74
   4717.30    9.050  2.74
   4720.04    9.041  2.74
   4722.78    9.033  2.74
   4725.52    9.036  2.74
   4728.26    9.048  2.74
   4731.00    9.044  2.74
   4733.74    9.039  2.74
   4736.48    9.034  2.74
   4739.22    9.025  2.74
   4741.96    9.019  2.74
   4744.70    9.011  2.74
   4747.44    9.006  2.74
   4750.18    9.002  2.74
   4752.92    9.005  2.74
   4755.66    9.016  2.74
   4758.40    9.031  2.74
   4761.14    9.046  2.74
   4763.88    9.043  2.74
   4766.62    9.014  2.74
   4769.36    8.992  2.74
   4772.10    8.994  2.74
   4774.84    8.986  2.74
   4777.58    8.979  2.74
   4780.32    8.984  2.74
   4783.06    8.995  2.74
   4785.80    9.009  2.74
   4788.54    9.009  2.74
   4791.28    8.983  2.74
   4794.02    8.962  2.74
   4796.76    8.966  2.74
   4799.50    8.968  2.74
   4802.24    8.958  2.74
   4804.98    8.965  2.74
   4807.72    8.962  2.74
   4810.46    8.945  2.74
   4813.20    8.930  2.74
   4815.94    8.931  2.74
   4818.68    8.931  2.74
   4821.42    8.942  2.74
   4824.16    8.952  2.74
   4826.90    8.935  2.74
   4829.64    8.930  2.74
   4832.38    8.925  2.74
   4835.12    8.917  2.74
   4837.86    8.927  2.74
   4840.60    8.935  2.74
   4843.34    8.915  2.74
   4846.08    8.909  2.74
   4848.82    8.920  2.74
   4851.56    8.915  2.74
   4854.30    8.935  2.74
   4857.04    8.975  2.74
   4859.78    9.048  2.74
   4862.52    9.065  2.74
   4865.26    8.966  2.74
   4868.00    8.938  2.74
   4870.74    8.942  2.74
   4873.48    8.938  2.74
   4876.22    8.920  2.74
   4878.96    8.911  2.74
   4881.70    8.907  2.74
   4884.44    8.914  2.74
   4887.18    8.924  2.74
   4889.92    8.926  2.74
   4892.66    8.889  2.74
   4895.40    8.852  2.74
   4898.14    8.853  2.74
   4900.88    8.869  2.74
   4903.62    8.866  2.74
   4906.36    8.850  2.74
   4909.10    8.858  2.74
   4911.84    8.857  2.74
   4914.58    8.848  2.74
   4917.32    8.873  2.74
   4920.06    8.925  2.74
   4922.80    8.915  2.74
   4925.54    8.860  2.74
   4928.28    8.817  2.74
   4931.02    8.827  2.74
   4933.76    8.851  2.74
   4936.50    8.859  2.74
   4939.24    8.859  2.74
   4941.98    8.827  2.74
   4944.72    8.808  2.74
   4947.46    8.800  2.74
   4950.20    8.788  2.74
   4952.94    8.792  2.74
   4955.68    8.821  2.74
   4958.42    8.833  2.74
   4961.16    8.794  2.74
   4963.90    8.797  2.74
   4966.64    8.807  2.74
   4969.38    8.796  2.74
   4972.12    8.781  2.74
   4974.86    8.770  2.74
   4977.60    8.782  2.74
   4980.34    8.823  2.74
   4983.08    8.849  2.74
   4985.82    8.825  2.74
   4988.56    8.794  2.74
   4991.30    8.808  2.74
   4994.04    8.795  2.74
   4996.78    8.792  2.74
   4999.52    8.808  2.74
   5002.26    8.814  2.74
   5005.00    8.825  2.74
   5007.74    8.825  2.74
   5010.48    8.812  2.74
   5013.22    8.844  2.74
   5015.96    8.831  2.74
   5018.70    8.800  2.74
   5021.44    8.781  2.74
   5024.18    8.772  2.74
   5026.92    8.764  2.74
   5029.66    8.754  2.74
   5032.40    8.740  2.74
   5035.14    8.755  2.74
   5037.88    8.801  2.74
   5040.62    8.822  2.74
   5043.36    8.783  2.74
   5046.10    8.732  2.74
   5048.84    8.730  2.74
   5051.58    8.740  2.74
   5054.32    8.700  2.74
   5057.06    8.683  2.74
   5059.80    8.693  2.74
   5062.54    8.704  2.74
   5065.28    8.729  2.74
   5068.02    8.711  2.74
   5070.76    8.705  2.74
   5073.50    8.705  2.74
   5076.24    8.716  2.74
   5078.98    8.755  2.74
   5081.72    8.763  2.74
   5084.46    8.714  2.74
   5087.20    8.679  2.74
   5089.94    8.672  2.74
   5092.68    8.666  2.74
   5095.42    8.670  2.74
   5098.16    8.695  2.74
   5100.90    8.693  2.74
   5103.64    8.682  2.74
   5106.38    8.689  2.74
   5109.12    8.723  2.74
   5111.86    8.688  2.74
   5114.60    8.655  2.74
   5117.34    8.646  2.74
   5120.08    8.655  2.74
   5122.82    8.689  2.74
   5125.56    8.709  2.74
   5128.30    8.704  2.74
   5131.04    8.683  2.74
   5133.78    8.666  2.74
   5136.52    8.672  2.74
   5139.26    8.705  2.74
   5142.00    8.705  2.74
   5144.74    8.689  2.74
   5147.48    8.670  2.74
   5150.22    8.676  2.74
   5152.96    8.683  2.74
   5155.70    8.635  2.74
   5158.44    8.605  2.74
   5161.18    8.615  2.74
   5163.92    8.663  2.74
   5166.66    8.747  2.74
   5169.40    8.779  2.74
   5172.14    8.740  2.74
   5174.88    8.667  2.74
   5177.62    8.605  2.74
   5180.36    8.626  2.74
   5183.10    8.668  2.74
   5185.84    8.663  2.74
   5188.58    8.639  2.74
   5191.32    8.667  2.74
   5194.06    8.681  2.74
   5196.80    8.640  2.74
   5199.54    8.617  2.74
   5202.28    8.625  2.74
   5205.02    8.662  2.74
   5207.76    8.649  2.74
   5210.50    8.620  2.74
   5213.24    8.585  2.74
   5215.98    8.597  2.74
   5218.72    8.576  2.74
   5221.46    8.565  2.74
   5224.20    8.604  2.74
   5226.94    8.651  2.74
   5229.68    8.594  2.74
   5232.42    8.576  2.74
   5235.16    8.564  2.74
   5237.90    8.534  2.74
   5240.64    8.531  2.74
   5243.38    8.528  2.74
   5246.12    8.553  2.74
   5248.86    8.590  2.74
   5251.60    8.584  2.74
   5254.34    8.562  2.74
   5257.08    8.534  2.74
   5259.82    8.538  2.74
   5262.56    8.592  2.74
   5265.30    8.621  2.74
   5268.04    8.623  2.74
   5270.78    8.607  2.74
   5273.52    8.557  2.74
   5276.26    8.521  2.74
   5279.00    8.503  2.74
   5281.74    8.520  2.74
   5284.48    8.512  2.74
   5287.22    8.473  2.74
   5289.96    8.465  2.74
   5292.70    8.474  2.74
   5295.44    8.497  2.74
   5298.18    8.516  2.74
   5300.92    8.492  2.74
   5303.66    8.479  2.74
   5306.40    8.467  2.74
   5309.14    8.454  2.74
   5311.88    8.444  2.74
   5314.62    8.456  2.74
   5317.36    8.468  2.74
   5320.10    8.464  2.74
   5322.84    8.490  2.74
   5325.58    8.509  2.74
   5328.32    8.539  2.74
   5331.06    8.487  2.74
   5333.80    8.465  2.74
   5336.54    8.461  2.74
   5339.28    8.473  2.74
   5342.02    8.467  2.74
   5344.76    8.452  2.74
   5347.50    8.452  2.74
   5350.24    8.438  2.74
   5352.98    8.422  2.74
   5355.72    8.408  2.74
   5358.46    8.405  2.74
   5361.20    8.421  2.74
   5363.94    8.435  2.74
   5366.68    8.449  2.74
   5369.42    8.457  2.74
   5372.16    8.444  2.74
   5374.90    8.398  2.74
   5377.64    8.396  2.74
   5380.38    8.412  2.74
   5383.12    8.408  2.74
   5385.86    8.395  2.74
   5388.60    8.396  2.74
   5391.34    8.411  2.74
   5394.08    8.431  2.74
   5396.82    8.445  2.74
   5399.56    8.429  2.74
   5402.30    8.406  2.74
   5405.04    8.444  2.74
   5407.78    8.425  2.74
   5410.52    8.412  2.74
   5413.26    8.387  2.74
   5416.00    8.382  2.74
   5418.74    8.389  2.74
   5421.48    8.380  2.74
   5424.22    8.388  2.74
   5426.96    8.388  2.74
   5429.70    8.416  2.74
   5432.44    8.401  2.74
   5435.18    8.405  2.74
   5437.92    8.361  2.74
   5440.66    8.345  2.74
   5443.40    8.364  2.74
   5446.14    8.388  2.74
   5448.88    8.362  2.74
   5451.62    8.353  2.74
   5454.36    8.378  2.74
   5457.10    8.361  2.74
   5459.84    8.338  2.74
   5462.58    8.346  2.74
   5465.32    8.328  2.74
   5468.06    8.324  2.74
   5470.80    8.321  2.74
   5473.54    8.339  2.74
   5476.28    8.364  2.74
   5479.02    8.340  2.74
   5481.76    8.334  2.74
   5484.50    8.319  2.74
   5487.24    8.316  2.74
   5489.98    8.309  2.74
   5492.72    8.307  2.74
   5495.46    8.320  2.74
   5498.20    8.328  2.74
   5500.94    8.330  2.74
   5503.68    8.329  2.74
   5506.42    8.337  2.74
   5509.16    8.323  2.74
   5511.90    8.316  2.74
   5514.64    8.303  2.74
   5517.38    8.286  2.74
   5520.12    8.283  2.74
   5522.86    8.282  2.74
   5525.60    8.298  2.74
   5528.34    8.306  2.74
   5531.08    8.289  2.74
   5533.82    8.279  2.74
   5536.56    8.270  2.74
   5539.30    8.259  2.74
   5542.04    8.259  2.74
   5544.78    8.260  2.74
   5547.52    8.254  2.74
   5550.26    8.252  2.74
   5553.00    8.251  2.74
   5555.74    8.254  2.74
   5558.48    8.250  2.74
   5561.22    8.250  2.74
   5563.96    8.256  2.74
   5566.70    8.256  2.74
   5569.44    8.258  2.74
   5572.18    8.259  2.74
   5574.92    8.255  2.74
   5577.66    8.248  2.74
   5580.40    8.245  2.74
   5583.14    8.249  2.74
   5585.88    8.264  2.74
   5588.62    8.275  2.74
   5591.36    8.264  2.74
   5594.10    8.256  2.74
   5596.84    8.241  2.74
   5599.58    8.246  2.74
   5602.32    8.244  2.74
   5605.06    8.231  2.74
   5607.80    8.212  2.74
   5610.54    8.207  2.74
   5613.28    8.210  2.74
   5616.02    8.223  2.74
   5618.76    8.211  2.74
   5621.50    8.202  2.74
   5624.24    8.205  2.74
   5626.98    8.194  2.74
   5629.72    8.184  2.74
   5632.46    8.164  2.74
   5635.20    8.161  2.74
   5637.94    8.188  2.74
   5640.68    8.197  2.74
   5643.42    8.185  2.74
   5646.16    8.166  2.74
   5648.90    8.170  2.74
   5651.64    8.171  2.74
   5654.38    8.159  2.74
   5657.12    8.196  2.74
   5659.86    8.221  2.74
   5662.60    8.201  2.74
   5665.34    8.195  2.74
   5668.08    8.203  2.74
   5670.82    8.188  2.74
   5673.56    8.167  2.74
   5676.30    8.166  2.74
   5679.04    8.170  2.74
   5681.78    8.173  2.74
   5684.52    8.175  2.74
   5687.26    8.175  2.74
   5690.00    8.171  2.74
   5692.74    8.163  2.74
   5695.48    8.159  2.74
   5698.22    8.161  2.74
   5700.96    8.179  2.74
   5703.70    8.193  2.74
   5706.44    8.189  2.74
   5709.18    8.186  2.74
   5711.92    8.184  2.74
   5714.66    8.175  2.74
   5717.40    8.162  2.74
   5720.14    8.154  2.74
   5722.88    8.147  2.74
   5725.62    8.135  2.74
   5728.36    8.131  2.74
   5731.10    8.147  2.74
   5733.84    8.139  2.74
   5736.58    8.116  2.74
   5739.32    8.115  2.74
   5742.06    8.122  2.74
   5744.80    8.126  2.74
   5747.54    8.130  2.74
   5750.28    8.133  2.74
   5753.02    8.131  2.74
   5755.76    8.123  2.74
   5758.50    8.118  2.74
   5761.24    8.114  2.74
   5763.98    8.113  2.74
   5766.72    8.111  2.74
   5769.46    8.108  2.74
   5772.20    8.105  2.74
   5774.94    8.100  2.74
   5777.68    8.103  2.74
   5780.42    8.114  2.74
   5783.16    8.109  2.74
   5785.90    8.099  2.74
   5788.64    8.092  2.74
   5791.38    8.087  2.74
   5794.12    8.083  2.74
   5796.86    8.083  2.74
   5799.60    8.090  2.74
   5802.34    8.080  2.74
   5805.08    8.061  2.74
   5807.82    8.065  2.74
   5810.56    8.074  2.74
   5813.30    8.068  2.74
   5816.04    8.064  2.74
   5818.78    8.067  2.74
   5821.52    8.069  2.74
   5824.26    8.069  2.74
   5827.00    8.066  2.74
   5829.74    8.061  2.74
   5832.48    8.052  2.74
   5835.22    8.046  2.74
   5837.96    8.052  2.74
   5840.70    8.057  2.74
   5843.44    8.060  2.74
   5846.18    8.060  2.74
   5848.92    8.060  2.74
   5851.66    8.069  2.74
   5854.40    8.076  2.74
   5857.14    8.068  2.74
   5859.88    8.059  2.74
   5862.62    8.052  2.74
   5865.36    8.047  2.74
   5868.10    8.044  2.74
   5870.84    8.020  2.74
   5873.58    7.994  2.74
   5876.32    8.019  2.74
   5879.06    8.050  2.74
   5881.80    8.052  2.74
   5884.54    8.061  2.74
   5887.28    8.084  2.74
   5890.02    8.100  2.74
   5892.76    8.113  2.74
   5895.50    8.100  2.74
   5898.24    8.075  2.74
   5900.98    8.045  2.74
   5903.72    8.024  2.74
   5906.46    8.020  2.74
   5909.20    8.018  2.74
   5911.94    8.017  2.74
   5914.68    8.024  2.74
   5917.42    8.033  2.74
   5920.16    8.025  2.74
   5922.90    8.013  2.74
   5925.64    8.007  2.74
   5928.38    8.004  2.74
   5931.12    8.008  2.74
   5933.86    8.005  2.74
   5936.60    7.998  2.74
   5939.34    7.995  2.74
   5942.08    7.993  2.74
   5944.82    7.992  2.74
   5947.56    7.992  2.74
   5950.30    7.993  2.74
   5953.04    7.995  2.74
   5955.78    8.000  2.74
   5958.52    7.996  2.74
   5961.26    7.989  2.74
   5964.00    7.985  2.74
   5966.74    7.983  2.74
   5969.48    7.980  2.74
   5972.22    7.977  2.74
   5974.96    7.971  2.74
   5977.70    7.971  2.74
   5980.44    7.975  2.74
   5983.18    7.978  2.74
   5985.92    7.977  2.74
   5988.66    7.962  2.74
   5991.40    7.953  2.74
   5994.14    7.964  2.74
   5996.88    7.969  2.74
   5999.62    7.966  2.74
   6002.36    7.969  2.74
   6005.10    7.973  2.74
   6007.84    7.972  2.74
   6010.58    7.968  2.74
   6013.32    7.963  2.74
   6016.06    7.960  2.74
   6018.80    7.962  2.74
   6021.54    7.964  2.74
   6024.28    7.969  2.74
   6027.02    7.964  2.74
   6029.76    7.955  2.74
   6032.50    7.950  2.74
   6035.24    7.946  2.74
   6037.98    7.937  2.74
   6040.72    7.934  2.74
   6043.46    7.939  2.74
   6046.20    7.942  2.74
   6048.94    7.944  2.74
   6051.68    7.934  2.74
   6054.42    7.924  2.74
   6057.16    7.931  2.74
   6059.90    7.939  2.74
   6062.64    7.947  2.74
   6065.38    7.945  2.74
   6068.12    7.932  2.74
   6070.86    7.922  2.74
   6073.60    7.915  2.74
   6076.34    7.925  2.74
   6079.08    7.934  2.74
   6081.82    7.928  2.74
   6084.56    7.921  2.74
   6087.30    7.912  2.74
   6090.04    7.910  2.74
   6092.78    7.913  2.74
   6095.52    7.915  2.74
   6098.26    7.918  2.74
   6101.00    7.923  2.74
   6103.74    7.924  2.74
   6106.48    7.918  2.74
   6109.22    7.912  2.74
   6111.96    7.905  2.74
   6114.70    7.906  2.74
   6117.44    7.911  2.74
   6120.18    7.916  2.74
   6122.92    7.918  2.74
   6125.66    7.908  2.74
   6128.40    7.904  2.74
   6131.14    7.907  2.74
   6133.88    7.921  2.74
   6136.62    7.944  2.74
   6139.36    7.944  2.74
   6142.10    7.934  2.74
   6144.84    7.915  2.74
   6147.58    7.900  2.74
   6150.32    7.896  2.74
   6153.06    7.891  2.74
   6155.80    7.885  2.74
   6158.54    7.893  2.74
   6161.28    7.910  2.74
   6164.02    7.920  2.74
   6166.76    7.924  2.74
   6169.50    7.914  2.74
   6172.24    7.905  2.74
   6174.98    7.899  2.74
   6177.72    7.891  2.74
   6180.46    7.882  2.74
   6183.20    7.875  2.74
   6185.94    7.873  2.74
   6188.68    7.883  2.74
   6191.42    7.891  2.74
   6194.16    7.892  2.74
   6196.90    7.886  2.74
   6199.64    7.871  2.74
   6202.38    7.864  2.74
   6205.12    7.859  2.74
   6207.86    7.846  2.74
   6210.60    7.842  2.74
   6213.34    7.869  2.74
   6216.08    7.884  2.74
   6218.82    7.869  2.74
   6221.56    7.866  2.74
   6224.30    7.870  2.74
   6227.04    7.872  2.74
   6229.78    7.873  2.74
   6232.52    7.862  2.74
   6235.26    7.854  2.74
   6238.00    7.855  2.74
   6240.74    7.862  2.74
   6243.48    7.878  2.74
   6246.22    7.880  2.74
   6248.96    7.875  2.74
   6251.70    7.881  2.74
   6254.44    7.885  2.74
   6257.18    7.877  2.74
   6259.92    7.867  2.74
   6262.66    7.857  2.74
   6265.40    7.852  2.74
   6268.14    7.851  2.74
   6270.88    7.842  2.74
   6273.62    7.833  2.74
   6276.36    7.833  2.74
   6279.10    7.837  2.74
   6281.84    7.844  2.74
   6284.58    7.846  2.74
   6287.32    7.842  2.74
   6290.06    7.836  2.74
   6292.80    7.829  2.74
   6295.54    7.832  2.74
   6298.28    7.838  2.74
   6301.02    7.844  2.74
   6303.76    7.843  2.74
   6306.50    7.827  2.74
   6309.24    7.821  2.74
   6311.98    7.823  2.74
   6314.72    7.830  2.74
   6317.46    7.838  2.74
   6320.20    7.832  2.74
   6322.94    7.825  2.74
   6325.68    7.826  2.74
   6328.42    7.825  2.74
   6331.16    7.818  2.74
   6333.90    7.822  2.74
   6336.64    7.831  2.74
   6339.38    7.825  2.74
   6342.12    7.815  2.74
   6344.86    7.808  2.74
   6347.60    7.802  2.74
   6350.34    7.795  2.74
   6353.08    7.794  2.74
   6355.82    7.798  2.74
   6358.56    7.804  2.74
   6361.30    7.811  2.74
   6364.04    7.803  2.74
   6366.78    7.792  2.74
   6369.52    7.784  2.74
   6372.26    7.778  2.74
   6375.00    7.776  2.74
   6377.74    7.774  2.74
   6380.48    7.774  2.74
   6383.22    7.780  2.74
   6385.96    7.788  2.74
   6388.70    7.787  2.74
   6391.44    7.788  2.74
   6394.18    7.797  2.74
   6396.92    7.800  2.74
   6399.66    7.798  2.74
   6402.40    7.794  2.74
   6405.14    7.788  2.74
   6407.88    7.788  2.74
   6410.62    7.786  2.74
   6413.36    7.770  2.74
   6416.10    7.763  2.74
   6418.84    7.769  2.74
   6421.58    7.775  2.74
   6424.32    7.784  2.74
   6427.06    7.776  2.74
   6429.80    7.765  2.74
   6432.54    7.764  2.74
   6435.28    7.763  2.74
   6438.02    7.761  2.74
   6440.76    7.761  2.74
   6443.50    7.761  2.74
   6446.24    7.759  2.74
   6448.98    7.755  2.74
   6451.72    7.755  2.74
   6454.46    7.754  2.74
   6457.20    7.749  2.74
   6459.94    7.749  2.74
   6462.68    7.764  2.74
   6465.42    7.757  2.74
   6468.16    7.735  2.74
   6470.90    7.733  2.74
   6473.64    7.739  2.74
   6476.38    7.740  2.74
   6479.12    7.740  2.74
   6481.86    7.737  2.74
   6484.60    7.737  2.74
   6487.34    7.739  2.74
   6490.08    7.744  2.74
   6492.82    7.751  2.74
   6495.56    7.765  2.74
   6498.30    7.773  2.74
   6501.04    7.759  2.74
   6503.78    7.743  2.74
   6506.52    7.727  2.74
   6509.26    7.717  2.74
   6512.00    7.712  2.74
   6514.74    7.709  2.74
   6517.48    7.708  2.74
   6520.22    7.706  2.74
   6522.96    7.704  2.74
   6525.70    7.705  2.74
   6528.44    7.706  2.74
   6531.18    7.708  2.74
   6533.92    7.706  2.74
   6536.66    7.701  2.74
   6539.40    7.703  2.74
   6542.14    7.705  2.74
   6544.88    7.700  2.74
   6547.62    7.697  2.74
   6550.36    7.699  2.74
   6553.10    7.705  2.74
   6555.84    7.715  2.74
   6558.58    7.728  2.74
   6561.32    7.740  2.74
   6564.06    7.743  2.74
   6566.80    7.735  2.74
   6569.54    7.707  2.74
   6572.28    7.692  2.74
   6575.02    7.695  2.74
   6577.76    7.695  2.74
   6580.50    7.695  2.74
   6583.24    7.688  2.74
   6585.98    7.680  2.74
   6588.72    7.679  2.74
   6591.46    7.681  2.74
   6594.20    7.688  2.74
   6596.94    7.687  2.74
   6599.68    7.678  2.74
   6602.42    7.675  2.74
   6605.16    7.673  2.74
   6607.90    7.674  2.74
   6610.64    7.673  2.74
   6613.38    7.663  2.74
   6616.12    7.657  2.74
   6618.86    7.659  2.74
   6621.60    7.653  2.74
   6624.34    7.643  2.74
   6627.08    7.649  2.74
   6629.82    7.657  2.74
   6632.56    7.650  2.74
   6635.30    7.646  2.74
   6638.04    7.653  2.74
   6640.78    7.658  2.74
   6643.52    7.663  2.74
   6646.26    7.657  2.74
   6649.00    7.645  2.74
   6651.74    7.640  2.74
   6654.48    7.638  2.74
   6657.22    7.643  2.74
   6659.96    7.646  2.74
   6662.70    7.646  2.74
   6665.44    7.646  2.74
   6668.18    7.645  2.74
   6670.92    7.643  2.74
   6673.66    7.641  2.74
   6676.40    7.644  2.74
   6679.14    7.646  2.74
   6681.88    7.644  2.74
   6684.62    7.638  2.74
   6687.36    7.624  2.74
   6690.10    7.622  2.74
   6692.84    7.625  2.74
   6695.58    7.627  2.74
   6698.32    7.629  2.74
   6701.06    7.628  2.74
   6703.80    7.628  2.74
   6706.54    7.629  2.74
   6709.28    7.627  2.74
   6712.02    7.621  2.74
   6714.76    7.624  2.74
   6717.50    7.628  2.74
   6720.24    7.623  2.74
   6722.98    7.617  2.74
   6725.72    7.608  2.74
   6728.46    7.604  2.74
   6731.20    7.607  2.74
   6733.94    7.602  2.74
   6736.68    7.594  2.74
   6739.42    7.604  2.74
   6742.16    7.617  2.74
   6744.90    7.621  2.74
   6747.64    7.622  2.74
   6750.38    7.618  2.74
   6753.12    7.612  2.74
   6755.86    7.602  2.74
   6758.60    7.595  2.74
   6761.34    7.591  2.74
   6764.08    7.600  2.74
   6766.82    7.608  2.74
   6769.56    7.611  2.74
   6772.30    7.609  2.74
   6775.04    7.598  2.74
   6777.78    7.599  2.74
   6780.52    7.604  2.74
   6783.26    7.599  2.74
   6786.00    7.592  2.74
   6788.74    7.588  2.74
   6791.48    7.587  2.74
   6794.22    7.595  2.74
   6796.96    7.598  2.74
   6799.70    7.599  2.74
   6802.44    7.601  2.74
   6805.18    7.602  2.74
   6807.92    7.594  2.74
   6810.66    7.586  2.74
   6813.40    7.581  2.74
   6816.14    7.579  2.74
   6818.88    7.581  2.74
   6821.62    7.578  2.74
   6824.36    7.574  2.74
   6827.10    7.572  2.74
   6829.84    7.572  2.74
   6832.58    7.575  2.74
   6835.32    7.577  2.74
   6838.06    7.575  2.74
   6840.80    7.580  2.74
   6843.54    7.593  2.74
   6846.28    7.587  2.74
   6849.02    7.575  2.74
   6851.76    7.572  2.74
   6854.50    7.572  2.74
   6857.24    7.576  2.74
   6859.98    7.578  2.74
   6862.72    7.579  2.74
   6865.46    7.573  2.74
   6868.20    7.564  2.74
   6870.94    7.563  2.74
   6873.68    7.564  2.74
   6876.42    7.560  2.74
   6879.16    7.558  2.74
   6881.90    7.562  2.74
   6884.64    7.558  2.74
   6887.38    7.545  2.74
   6890.12    7.548  2.74
   6892.86    7.554  2.74
   6895.60    7.518  2.74
   6898.34    7.495  2.74
   6901.08    7.533  2.74
   6903.82    7.558  2.74
   6906.56    7.555  2.74
   6909.30    7.560  2.74
   6912.04    7.567  2.74
   6914.78    7.562  2.74
   6917.52    7.552  2.74
   6920.26    7.540  2.74
   6923.00    7.532  2.74
   6925.74    7.531  2.74
   6928.48    7.533  2.74
   6931.22    7.540  2.74
   6933.96    7.543  2.74
   6936.70    7.545  2.74
   6939.44    7.539  2.74
   6942.18    7.536  2.74
   6944.92    7.549  2.74
   6947.66    7.554  2.74
   6950.40    7.543  2.74
   6953.14    7.536  2.74
   6955.88    7.530  2.74
   6958.62    7.528  2.74
   6961.36    7.530  2.74
   6964.10    7.529  2.74
   6966.84    7.528  2.74
   6969.58    7.522  2.74
   6972.32    7.523  2.74
   6975.06    7.534  2.74
   6977.80    7.535  2.74
   6980.54    7.530  2.74
   6983.28    7.523  2.74
   6986.02    7.516  2.74
   6988.76    7.519  2.74
   6991.50    7.521  2.74
   6994.24    7.523  2.74
   6996.98    7.520  2.74
   6999.72    7.515  2.74
   7002.46    7.515  2.74
   7005.20    7.517  2.74
   7007.94    7.515  2.74
   7010.68    7.512  2.74
   7013.42    7.513  2.74
   7016.16    7.513  2.74
   7018.90    7.511  2.74
   7021.64    7.508  2.74
   7024.38    7.505  2.74
   7027.12    7.506  2.74
   7029.86    7.507  2.74
   7032.60    7.509  2.74
   7035.34    7.506  2.74
   7038.08    7.493  2.74
   7040.82    7.489  2.74
   7043.56    7.491  2.74
   7046.30    7.488  2.74
   7049.04    7.485  2.74
   7051.78    7.488  2.74
   7054.52    7.491  2.74
   7057.26    7.488  2.74
   7060.00    7.489  2.74
   7062.74    7.496  2.74
   7065.48    7.496  2.74
   7068.22    7.494  2.74
   7070.96    7.490  2.74
   7073.70    7.486  2.74
   7076.44    7.486  2.74
   7079.18    7.485  2.74
   7081.92    7.481  2.74
   7084.66    7.477  2.74
   7087.40    7.474  2.74
   7090.14    7.473  2.74
   7092.88    7.474  2.74
   7095.62    7.479  2.74
   7098.36    7.484  2.74
   7101.10    7.484  2.74
   7103.84    7.479  2.74
   7106.58    7.462  2.74
   7109.32    7.461  2.74
   7112.06    7.468  2.74
   7114.80    7.471  2.74
   7117.54    7.474  2.74
   7120.28    7.481  2.74
   7123.02    7.485  2.74
   7125.76    7.481  2.74
   7128.50    7.480  2.74
   7131.24    7.483  2.74
   7133.98    7.476  2.74
   7136.72    7.466  2.74
   7139.46    7.464  2.74
   7142.20    7.464  2.74
   7144.94    7.465  2.74
   7147.68    7.468  2.74
   7150.42    7.480  2.74
   7153.16    7.480  2.74
   7155.90    7.472  2.74
   7158.64    7.467  2.74
   7161.38    7.463  2.74
   7164.12    7.466  2.74
   7166.86    7.465  2.74
   7169.60    7.449  2.74
   7172.34    7.443  2.74
   7175.08    7.449  2.74
   7177.82    7.451  2.74
   7180.56    7.455  2.74
   7183.30    7.462  2.74
   7186.04    7.469  2.74
   7188.78    7.476  2.74
   7191.52    7.464  2.74
   7194.26    7.414  2.74
   7197.00    7.415  2.74
   7199.74    7.452  2.74
   7202.48    7.456  2.74
   7205.22    7.452  2.74
   7207.96    7.454  2.74
   7210.70    7.457  2.74
   7213.44    7.461  2.74
   7216.18    7.457  2.74
   7218.92    7.440  2.74
   7221.66    7.438  2.74
   7224.40    7.443  2.74
   7227.14    7.441  2.74
   7229.88    7.438  2.74
   7232.62    7.436  2.74
   7235.36    7.434  2.74
   7238.10    7.430  2.74
   7240.84    7.427  2.74
   7243.58    7.425  2.74
   7246.32    7.419  2.74
   7249.06    7.414  2.74
   7251.80    7.417  2.74
   7254.54    7.422  2.74
   7257.28    7.427  2.74
   7260.02    7.430  2.74
   7262.76    7.432  2.74
   7265.50    7.429  2.74
   7268.24    7.423  2.74
   7270.98    7.421  2.74
   7273.72    7.419  2.74
   7276.46    7.414  2.74
   7279.20    7.412  2.74
   7281.94    7.414  2.74
   7284.68    7.417  2.74
   7287.42    7.423  2.74
   7290.16    7.424  2.74
   7292.90    7.423  2.74
   7295.64    7.420  2.74
   7298.38    7.416  2.74
   7301.12    7.403  2.74
   7303.86    7.400  2.74
   7306.60    7.411  2.74
   7309.34    7.411  2.74
   7312.08    7.406  2.74
   7314.82    7.407  2.74
   7317.56    7.408  2.74
   7320.30    7.405  2.74
   7323.04    7.403  2.74
   7325.78    7.402  2.74
   7328.52    7.400  2.74
   7331.26    7.396  2.74
   7334.00    7.392  2.74
   7336.74    7.389  2.74
   7339.48    7.390  2.74
   7342.22    7.394  2.74
   7344.96    7.403  2.74
   7347.70    7.404  2.74
   7350.44    7.392  2.74
   7353.18    7.389  2.74
   7355.92    7.390  2.74
   7358.66    7.392  2.74
   7361.40    7.394  2.74
   7364.14    7.389  2.74
   7366.88    7.385  2.74
   7369.62    7.385  2.74
   7372.36    7.381  2.74
   7375.10    7.371  2.74
   7377.84    7.375  2.74
   7380.58    7.386  2.74
   7383.32    7.391  2.74
   7386.06    7.392  2.74
   7388.80    7.385  2.74
   7391.54    7.382  2.74
   7394.28    7.389  2.74
   7397.02    7.384  2.74
   7399.76    7.371  2.74
   7402.50    7.372  2.74
   7405.24    7.378  2.74
   7407.98    7.383  2.74
   7410.72    7.389  2.74
   7413.46    7.399  2.74
   7416.20    7.399  2.74
   7418.94    7.386  2.74
   7421.68    7.375  2.74
   7424.42    7.366  2.74
   7427.16    7.368  2.74
   7429.90    7.371  2.74
   7432.64    7.365  2.74
   7435.38    7.363  2.74
   7438.12    7.366  2.74
   7440.86    7.366  2.74
   7443.60    7.365  2.74
   7446.34    7.366  2.74
   7449.08    7.364  2.74
   7451.82    7.354  2.74
   7454.56    7.348  2.74
   7457.30    7.356  2.74
   7460.04    7.362  2.74
   7462.78    7.368  2.74
   7465.52    7.365  2.74
   7468.26    7.357  2.74
   7471.00    7.351  2.74
   7473.74    7.346  2.74
   7476.48    7.346  2.74
   7479.22    7.347  2.74
   7481.96    7.348  2.74
   7484.70    7.349  2.74
   7487.44    7.349  2.74
   7490.18    7.353  2.74
   7492.92    7.357  2.74
   7495.66    7.357  2.74
   7498.40    7.357  2.74
   7501.14    7.357  2.74
   7503.88    7.360  2.74
   7506.62    7.366  2.74
   7509.36    7.366  2.74
   7512.10    7.361  2.74
   7514.84    7.352  2.74
   7517.58    7.346  2.74
   7520.32    7.351  2.74
   7523.06    7.352  2.74
   7525.80    7.342  2.74
   7528.54    7.340  2.74
   7531.28    7.347  2.74
   7534.02    7.327  2.74
   7536.76    7.303  2.74
   7539.50    7.313  2.74
   7542.24    7.327  2.74
   7544.98    7.332  2.74
   7547.72    7.334  2.74
   7550.46    7.331  2.74
   7553.20    7.332  2.74
   7555.94    7.335  2.74
   7558.68    7.340  2.74
   7561.42    7.343  2.74
   7564.16    7.338  2.74
   7566.90    7.333  2.74
   7569.64    7.333  2.74
   7572.38    7.332  2.74
   7575.12    7.331  2.74
   7577.86    7.330  2.74
   7580.60    7.330  2.74
   7583.34    7.338  2.74
   7586.08    7.343  2.74
   7588.82    7.338  2.74
   7591.56    7.331  2.74
   7594.30    7.323  2.74
   7597.04    7.321  2.74
   7599.78    7.323  2.74
   7602.52    7.321  2.74
   7605.26    7.321  2.74
   7608.00    7.323  2.74
   7610.74    7.325  2.74
   7613.48    7.324  2.74
   7616.22    7.325  2.74
   7618.96    7.326  2.74
   7621.70    7.324  2.74
   7624.44    7.321  2.74
   7627.18    7.317  2.74
   7629.92    7.311  2.74
   7632.66    7.303  2.74
   7635.40    7.299  2.74
   7638.14    7.298  2.74
   7640.88    7.298  2.74
   7643.62    7.300  2.74
   7646.36    7.298  2.74
   7649.10    7.298  2.74
   7651.84    7.315  2.74
   7654.58    7.327  2.74
   7657.32    7.323  2.74
   7660.06    7.323  2.74
   7662.80    7.328  2.74
   7665.54    7.330  2.74
   7668.28    7.328  2.74
   7671.02    7.317  2.74
   7673.76    7.306  2.74
   7676.50    7.305  2.74
   7679.24    7.302  2.74
   7681.98    7.295  2.74
   7684.72    7.294  2.74
   7687.46    7.298  2.74
   7690.20    7.301  2.74
   7692.94    7.304  2.74
   7695.68    7.304  2.74
   7698.42    7.306  2.74
   7701.16    7.313  2.74
   7703.90    7.316  2.74
   7706.64    7.313  2.74
   7709.38    7.316  2.74
   7712.12    7.320  2.74
   7714.86    7.316  2.74
   7717.60    7.310  2.74
   7720.34    7.303  2.74
   7723.08    7.298  2.74
   7725.82    7.295  2.74
   7728.56    7.293  2.74
   7731.30    7.291  2.74
   7734.04    7.297  2.74
   7736.78    7.305  2.74
   7739.52    7.298  2.74
   7742.26    7.293  2.74
   7745.00    7.300  2.74
   7747.74    7.306  2.74
   7750.48    7.314  2.74
   7753.22    7.306  2.74
   7755.96    7.288  2.74
   7758.70    7.282  2.74
   7761.44    7.278  2.74
   7764.18    7.275  2.74
   7766.92    7.273  2.74
   7769.66    7.273  2.74
   7772.40    7.275  2.74
   7775.14    7.279  2.74
   7777.88    7.278  2.74
   7780.62    7.275  2.74
   7783.36    7.278  2.74
   7786.10    7.282  2.74
   7788.84    7.287  2.74
   7791.58    7.290  2.74
   7794.32    7.291  2.74
   7797.06    7.292  2.74
   7799.80    7.291  2.74
   7802.54    7.289  2.74
   7805.28    7.286  2.74
   7808.02    7.278  2.74
   7810.76    7.269  2.74
   7813.50    7.261  2.74
   7816.24    7.256  2.74
   7818.98    7.255  2.74
   7821.72    7.255  2.74
   7824.46    7.255  2.74
   7827.20    7.256  2.74
   7829.94    7.257  2.74
   7832.68    7.261  2.74
   7835.42    7.263  2.74
   7838.16    7.260  2.74
   7840.90    7.258  2.74
   7843.64    7.256  2.74
   7846.38    7.257  2.74
   7849.12    7.258  2.74
   7851.86    7.261  2.74
   7854.60    7.264  2.74
   7857.34    7.268  2.74
   7860.08    7.270  2.74
   7862.82    7.269  2.74
   7865.56    7.263  2.74
   7868.30    7.253  2.74
   7871.04    7.254  2.74
   7873.78    7.257  2.74
   7876.52    7.260  2.74
   7879.26    7.259  2.74
   7882.00    7.250  2.74
   7884.74    7.242  2.74
   7887.48    7.235  2.74
   7890.22    7.233  2.74
   7892.96    7.234  2.74
   7895.70    7.236  2.74
   7898.44    7.236  2.74
   7901.18    7.233  2.74
   7903.92    7.235  2.74
   7906.66    7.242  2.74
   7909.40    7.248  2.74
   7912.14    7.253  2.74
   7914.88    7.259  2.74
   7917.62    7.263  2.74
   7920.36    7.260  2.74
   7923.10    7.255  2.74
   7925.84    7.245  2.74
   7928.58    7.243  2.74
   7931.32    7.248  2.74
   7934.06    7.244  2.74
   7936.80    7.239  2.74
   7939.54    7.241  2.74
   7942.28    7.243  2.74
   7945.02    7.243  2.74
   7947.76    7.240  2.74
   7950.50    7.234  2.74
   7953.24    7.226  2.74
   7955.98    7.217  2.74
   7958.72    7.221  2.74
   7961.46    7.220  2.74
   7964.20    7.182  2.74
   7966.94    7.173  2.74
   7969.68    7.223  2.74
   7972.42    7.235  2.74
   7975.16    7.221  2.74
   7977.90    7.221  2.74
   7980.64    7.222  2.74
   7983.38    7.214  2.74
   7986.12    7.209  2.74
   7988.86    7.215  2.74
   7991.60    7.217  2.74
   7994.34    7.216  2.74
   7997.08    7.216  2.74
   7999.82    7.216  2.74
   8002.56    7.217  2.74
   8005.30    7.218  2.74
   8008.04    7.220  2.74
   8010.78    7.218  2.74
   8013.52    7.207  2.74
   8016.26    7.204  2.74
   8019.00    7.208  2.74
   8021.74    7.210  2.74
   8024.48    7.212  2.74
   8027.22    7.214  2.74
   8029.96    7.214  2.74
   8032.70    7.205  2.74
   8035.44    7.202  2.74
   8038.18    7.207  2.74
   8040.92    7.204  2.74
   8043.66    7.198  2.74
   8046.40    7.207  2.74
   8049.14    7.215  2.74
   8051.88    7.202  2.74
   8054.62    7.194  2.74
   8057.36    7.199  2.74
   8060.10    7.200  2.74
   8062.84    7.198  2.74
   8065.58    7.200  2.74
   8068.32    7.203  2.74
   8071.06    7.202  2.74
   8073.80    7.201  2.74
   8076.54    7.201  2.74
   8079.28    7.199  2.74
   8082.02    7.195  2.74
   8084.76    7.196  2.74
   8087.50    7.199  2.74
   8090.24    7.198  2.74
   8092.98    7.196  2.74
   8095.72    7.193  2.74
   8098.46    7.192  2.74
   8101.20    7.196  2.74
   8103.94    7.197  2.74
   8106.68    7.197  2.74
   8109.42    7.195  2.74
   8112.16    7.191  2.74
   8114.90    7.193  2.74
   8117.64    7.194  2.74
   8120.38    7.188  2.74
   8123.12    7.183  2.74
   8125.86    7.181  2.74
   8128.60    7.182  2.74
   8131.34    7.187  2.74
   8134.08    7.185  2.74
   8136.82    7.180  2.74
   8139.56    7.179  2.74
   8142.30    7.176  2.74
   8145.04    7.162  2.74
   8147.78    7.160  2.74
   8150.52    7.170  2.74
   8153.26    7.166  2.74
   8156.00    7.159  2.74
   8158.74    7.165  2.74
   8161.48    7.170  2.74
   8164.22    7.163  2.74
   8166.96    7.157  2.74
   8169.70    7.150  2.74
   8172.44    7.154  2.74
   8175.18    7.167  2.74
   8177.92    7.176  2.74
   8180.66    7.182  2.74
   8183.40    7.181  2.74
   8186.14    7.177  2.74
   8188.88    7.171  2.74
   8191.62    7.171  2.74
   8194.36    7.180  2.74
   8197.10    7.175  2.74
   8199.84    7.165  2.74
   8202.58    7.161  2.74
   8205.32    7.161  2.74
   8208.06    7.176  2.74
   8210.80    7.183  2.74
   8213.54    7.175  2.74
   8216.28    7.170  2.74
   8219.02    7.165  2.74
   8221.76    7.167  2.74
   8224.50    7.170  2.74
   8227.24    7.164  2.74
   8229.98    7.158  2.74
   8232.72    7.155  2.74
   8235.46    7.156  2.74
   8238.20    7.161  2.74
   8240.94    7.164  2.74
   8243.68    7.166  2.74
   8246.42    7.162  2.74
   8249.16    7.156  2.74
   8251.90    7.151  2.74
   8254.64    7.148  2.74
   8257.38    7.150  2.74
   8260.12    7.152  2.74
   8262.86    7.153  2.74
   8265.60    7.150  2.74
   8268.34    7.145  2.74
   8271.08    7.149  2.74
   8273.82    7.151  2.74
   8276.56    7.145  2.74
   8279.30    7.146  2.74
   8282.04    7.156  2.74
   8284.78    7.154  2.74
   8287.52    7.148  2.74
   8290.26    7.153  2.74
   8293.00    7.160  2.74
   8295.74    7.158  2.74
   8298.48    7.155  2.74
   8301.22    7.152  2.74
   8303.96    7.152  2.74
   8306.70    7.154  2.74
   8309.44    7.152  2.74
   8312.18    7.148  2.74
   8314.92    7.144  2.74
   8317.66    7.142  2.74
   8320.40    7.144  2.74
   8323.14    7.148  2.74
   8325.88    7.156  2.74
   8328.62    7.159  2.74
   8331.36    7.159  2.74
   8334.10    7.151  2.74
   8336.84    7.142  2.74
   8339.58    7.143  2.74
   8342.32    7.143  2.74
   8345.06    7.140  2.74
   8347.80    7.138  2.74
   8350.54    7.135  2.74
   8353.28    7.136  2.74
   8356.02    7.140  2.74
   8358.76    7.153  2.74
   8361.50    7.163  2.74
   8364.24    7.161  2.74
   8366.98    7.158  2.74
   8369.72    7.151  2.74
   8372.46    7.147  2.74
   8375.20    7.142  2.74
   8377.94    7.136  2.74
   8380.68    7.132  2.74
   8383.42    7.143  2.74
   8386.16    7.148  2.74
   8388.90    7.136  2.74
   8391.64    7.130  2.74
   8394.38    7.129  2.74
   8397.12    7.125  2.74
   8399.86    7.120  2.74
   8402.60    7.121  2.74
   8405.34    7.125  2.74
   8408.08    7.127  2.74
   8410.82    7.131  2.74
   8413.56    7.139  2.74
   8416.30    7.136  2.74
   8419.04    7.127  2.74
   8421.78    7.126  2.74
   8424.52    7.128  2.74
   8427.26    7.125  2.74
   8430.00    7.123  2.74
   8432.74    7.122  2.74
   8435.48    7.125  2.74
   8438.22    7.136  2.74
   8440.96    7.128  2.74
   8443.70    7.111  2.74
   8446.44    7.105  2.74
   8449.18    7.101  2.74
   8451.92    7.097  2.74
   8454.66    7.094  2.74
   8457.40    7.095  2.74
   8460.14    7.097  2.74
   8462.88    7.100  2.74
   8465.62    7.111  2.74
   8468.36    7.124  2.74
   8471.10    7.127  2.74
   8473.84    7.127  2.74
   8476.58    7.126  2.74
   8479.32    7.122  2.74
   8482.06    7.113  2.74
   8484.80    7.112  2.74
   8487.54    7.117  2.74
   8490.28    7.128  2.74
   8493.02    7.144  2.74
   8495.76    7.169  2.74
   8498.50    7.179  2.74
   8501.24    7.164  2.74
   8503.98    7.140  2.74
   8506.72    7.104  2.74
   8509.46    7.097  2.74
   8512.20    7.104  2.74
   8514.94    7.110  2.74
   8517.68    7.110  2.74
   8520.42    7.093  2.74
   8523.16    7.089  2.74
   8525.90    7.102  2.74
   8528.64    7.113  2.74
   8531.38    7.129  2.74
   8534.12    7.152  2.74
   8536.86    7.189  2.74
   8539.60    7.265  2.74
   8542.34    7.311  2.74
   8545.08    7.298  2.74
   8547.82    7.249  2.74
   8550.56    7.164  2.74
   8553.30    7.128  2.74
   8556.04    7.111  2.74
   8558.78    7.101  2.74
   8561.52    7.095  2.74
   8564.26    7.090  2.74
   8567.00    7.088  2.74
   8569.74    7.090  2.74
   8572.48    7.088  2.74
   8575.22    7.085  2.74
   8577.96    7.088  2.74
   8580.70    7.090  2.74
   8583.44    7.082  2.74
   8586.18    7.075  2.74
   8588.92    7.078  2.74
   8591.66    7.079  2.74
   8594.40    7.077  2.74
   8597.14    7.076  2.74
   8599.88    7.073  2.74
   8602.62    7.065  2.74
   8605.36    7.058  2.74
   8608.10    7.057  2.74
   8610.84    7.058  2.74
   8613.58    7.059  2.74
   8616.32    7.061  2.74
   8619.06    7.062  2.74
   8621.80    7.061  2.74
   8624.54    7.060  2.74
   8627.28    7.060  2.74
   8630.02    7.061  2.74
   8632.76    7.064  2.74
   8635.50    7.064  2.74
   8638.24    7.059  2.74
   8640.98    7.064  2.74
   8643.72    7.073  2.74
   8646.46    7.076  2.74
   8649.20    7.080  2.74
   8651.94    7.082  2.74
   8654.68    7.101  2.74
   8657.42    7.151  2.74
   8660.16    7.192  2.74
   8662.90    7.230  2.74
   8665.64    7.202  2.74
   8668.38    7.148  2.74
   8671.12    7.109  2.74
   8673.86    7.080  2.74
   8676.60    7.060  2.74
   8679.34    7.051  2.74
   8682.08    7.053  2.74
   8684.82    7.059  2.74
   8687.56    7.068  2.74
   8690.30    7.059  2.74
   8693.04    7.051  2.74
   8695.78    7.062  2.74
   8698.52    7.065  2.74
   8701.26    7.052  2.74
   8704.00    7.049  2.74
   8706.74    7.053  2.74
   8709.48    7.050  2.74
   8712.22    7.046  2.74
   8714.96    7.043  2.74
   8717.70    7.042  2.74
   8720.44    7.042  2.74
   8723.18    7.043  2.74
   8725.92    7.049  2.74
   8728.66    7.050  2.74
   8731.40    7.049  2.74
   8734.14    7.047  2.74
   8736.88    7.042  2.74
   8739.62    7.033  2.74
   8742.36    7.026  2.74
   8745.10    7.024  2.74
   8747.84    7.032  2.74
   8750.58    7.050  2.74
   8753.32    7.061  2.74
   8756.06    7.068  2.74
   8758.80    7.064  2.74
   8761.54    7.057  2.74
   8764.28    7.047  2.74
   8767.02    7.041  2.74
   8769.76    7.040  2.74
   8772.50    7.041  2.74
   8775.24    7.046  2.74
   8777.98    7.048  2.74
   8780.72    7.048  2.74
   8783.46    7.041  2.74
   8786.20    7.033  2.74
   8788.94    7.027  2.74
   8791.68    7.022  2.74
   8794.42    7.020  2.74
   8797.16    7.022  2.74
   8799.90    7.030  2.74
   8802.64    7.044  2.74
   8805.38    7.058  2.74
   8808.12    7.068  2.74
   8810.86    7.067  2.74
   8813.60    7.051  2.74
   8816.34    7.041  2.74
   8819.08    7.034  2.74
   8821.82    7.048  2.74
   8824.56    7.064  2.74
   8827.30    7.052  2.74
   8830.04    7.038  2.74
   8832.78    7.026  2.74
   8835.52    7.020  2.74
   8838.26    7.020  2.74
   8841.00    7.022  2.74
   8843.74    7.026  2.74
   8846.48    7.035  2.74
   8849.22    7.043  2.74
   8851.96    7.046  2.74
   8854.70    7.046  2.74
   8857.44    7.044  2.74
   8860.18    7.033  2.74
   8862.92    7.015  2.74
   8865.66    7.014  2.74
   8868.40    7.019  2.74
   8871.14    7.019  2.74
   8873.88    7.020  2.74
   8876.62    7.023  2.74
   8879.36    7.023  2.74
   8882.10    7.021  2.74
   8884.84    7.021  2.74
   8887.58    7.022  2.74
   8890.32    7.019  2.74
   8893.06    7.017  2.74
   8895.80    7.022  2.74
   8898.54    7.023  2.74
   8901.28    7.015  2.74
   8904.02    7.011  2.74
   8906.76    7.008  2.74
   8909.50    7.000  2.74
   8912.24    6.991  2.74
   8914.98    6.987  2.74
   8917.72    6.987  2.74
   8920.46    6.991  2.74
   8923.20    6.994  2.74
   8925.94    6.996  2.74
   8928.68    7.009  2.74
   8931.42    7.027  2.74
   8934.16    7.036  2.74
   8936.90    7.039  2.74
   8939.64    7.038  2.74
   8942.38    7.032  2.74
   8945.12    7.017  2.74
   8947.86    7.012  2.74
   8950.60    7.012  2.74
   8953.34    7.003  2.74
   8956.08    6.992  2.74
   8958.82    6.986  2.74
   8961.56    6.986  2.74
   8964.30    6.994  2.74
   8967.04    7.000  2.74
   8969.78    7.007  2.74
   8972.52    7.003  2.74
   8975.26    6.993  2.74
   8978.00    7.002  2.74
   8980.74    7.008  2.74
   8983.48    6.993  2.74
   8986.22    6.977  2.74
   8988.96    6.962  2.74
   8991.70    6.963  2.74
   8994.44    6.977  2.74
   8997.18    6.980  2.74
   8999.92    6.981  2.74
   9002.66    6.985  2.74
   9005.40    6.991  2.74
   9008.14    7.006  2.74
   9010.88    7.016  2.74
   9013.62    7.021  2.74
   9016.36    7.016  2.74
   9019.10    7.003  2.74
   9021.84    6.995  2.74
   9024.58    6.990  2.74
   9027.32    6.993  2.74
   9030.06    6.993  2.74
   9032.80    6.985  2.74
   9035.54    6.981  2.74
   9038.28    6.980  2.74
   9041.02    6.982  2.74
   9043.76    6.985  2.74
   9046.50    6.983  2.74
   9049.24    6.978  2.74
   9051.98    6.964  2.74
   9054.72    6.963  2.74
   9057.46    6.982  2.74
   9060.20    6.990  2.74
   9062.94    6.991  2.74
   9065.68    6.989  2.74
   9068.42    6.983  2.74
   9071.16    6.973  2.74
   9073.90    6.967  2.74
   9076.64    6.975  2.74
   9079.38    6.976  2.74
   9082.12    6.971  2.74
   9084.86    6.977  2.74
   9087.60    6.987  2.74
   9090.34    6.990  2.74
   9093.08    6.991  2.74
   9095.82    6.994  2.74
   9098.56    6.990  2.74
   9101.30    6.971  2.74
   9104.04    6.966  2.74
   9106.78    6.968  2.74
   9109.52    6.971  2.74
   9112.26    6.976  2.74
   9115.00    6.981  2.74
   9117.74    6.980  2.74
   9120.48    6.967  2.74
   9123.22    6.955  2.74
   9125.96    6.944  2.74
   9128.70    6.941  2.74
   9131.44    6.943  2.74
   9134.18    6.948  2.74
   9136.92    6.953  2.74
   9139.66    6.953  2.74
   9142.40    6.959  2.74
   9145.14    6.978  2.74
   9147.88    6.982  2.74
   9150.62    6.975  2.74
   9153.36    6.977  2.74
   9156.10    6.979  2.74
   9158.84    6.972  2.74
   9161.58    6.965  2.74
   9164.32    6.962  2.74
   9167.06    6.965  2.74
   9169.80    6.978  2.74
   9172.54    6.976  2.74
   9175.28    6.968  2.74
   9178.02    6.959  2.74
   9180.76    6.954  2.74
   9183.50    6.973  2.74
   9186.24    6.976  2.74
   9188.98    6.948  2.74
   9191.72    6.942  2.74
   9194.46    6.951  2.74
   9197.20    6.947  2.74
   9199.94    6.944  2.74
   9202.68    6.962  2.74
   9205.42    6.979  2.74
   9208.16    6.986  2.74
   9210.90    6.989  2.74
   9213.64    6.991  2.74
   9216.38    6.985  2.74
   9219.12    6.974  2.74
   9221.86    6.970  2.74
   9224.60    6.968  2.74
   9227.34    6.963  2.74
   9230.08    6.961  2.74
   9232.82    6.968  2.74
   9235.56    6.966  2.74
   9238.30    6.958  2.74
   9241.04    6.953  2.74
   9243.78    6.948  2.74
   9246.52    6.943  2.74
   9249.26    6.939  2.74
   9252.00    6.938  2.74
   9254.74    6.937  2.74
   9257.48    6.938  2.74
   9260.22    6.942  2.74
   9262.96    6.948  2.74
   9265.70    6.949  2.74
   9268.44    6.949  2.74
   9271.18    6.952  2.74
   9273.92    6.956  2.74
   9276.66    6.960  2.74
   9279.40    6.964  2.74
   9282.14    6.966  2.74
   9284.88    6.962  2.74
   9287.62    6.955  2.74
   9290.36    6.950  2.74
   9293.10    6.949  2.74
   9295.84    6.958  2.74
   9298.58    6.961  2.74
   9301.32    6.953  2.74
   9304.06    6.952  2.74
   9306.80    6.955  2.74
   9309.54    6.961  2.74
   9312.28    6.964  2.74
   9315.02    6.951  2.74
   9317.76    6.940  2.74
   9320.50    6.940  2.74
   9323.24    6.934  2.74
   9325.98    6.922  2.74
   9328.72    6.918  2.74
   9331.46    6.917  2.74
   9334.20    6.917  2.74
   9336.94    6.919  2.74
   9339.68    6.929  2.74
   9342.42    6.933  2.74
   9345.16    6.927  2.74
   9347.90    6.930  2.74
   9350.64    6.936  2.74
   9353.38    6.943  2.74
   9356.12    6.948  2.74
   9358.86    6.940  2.74
   9361.60    6.935  2.74
   9364.34    6.935  2.74
   9367.08    6.944  2.74
   9369.82    6.965  2.74
   9372.56    6.969  2.74
   9375.30    6.965  2.74
   9378.04    6.970  2.74
   9380.78    6.974  2.74
   9383.52    6.965  2.74
   9386.26    6.958  2.74
   9389.00    6.954  2.74
   9391.74    6.948  2.74
   9394.48    6.940  2.74
   9397.22    6.938  2.74
   9399.96    6.936  2.74
   9402.70    6.924  2.74
   9405.44    6.915  2.74
   9408.18    6.915  2.74
   9410.92    6.917  2.74
   9413.66    6.921  2.74
   9416.40    6.921  2.74
   9419.14    6.920  2.74
   9421.88    6.926  2.74
   9424.62    6.932  2.74
   9427.36    6.934  2.74
   9430.10    6.937  2.74
   9432.84    6.942  2.74
   9435.58    6.941  2.74
   9438.32    6.936  2.74
   9441.06    6.941  2.74
   9443.80    6.948  2.74
   9446.54    6.941  2.74
   9449.28    6.934  2.74
   9452.02    6.934  2.74
   9454.76    6.935  2.74
   9457.50    6.936  2.74
   9460.24    6.938  2.74
   9462.98    6.940  2.74
   9465.72    6.938  2.74
   9468.46    6.935  2.74
   9471.20    6.937  2.74
   9473.94    6.940  2.74
   9476.68    6.945  2.74
   9479.42    6.946  2.74
   9482.16    6.945  2.74
   9484.90    6.942  2.74
   9487.64    6.939  2.74
   9490.38    6.944  2.74
   9493.12    6.945  2.74
   9495.86    6.935  2.74
   9498.60    6.929  2.74
   9501.34    6.926  2.74
   9504.08    6.920  2.74
   9506.82    6.914  2.74
   9509.56    6.922  2.74
   9512.30    6.931  2.74
   9515.04    6.932  2.74
   9517.78    6.928  2.74
   9520.52    6.914  2.74
   9523.26    6.905  2.74
   9526.00    6.899  2.74
   9528.74    6.902  2.74
   9531.48    6.910  2.74
   9534.22    6.912  2.74
   9536.96    6.915  2.74
   9539.70    6.920  2.74
   9542.44    6.924  2.74
   9545.18    6.925  2.74
   9547.92    6.933  2.74
   9550.66    6.944  2.74
   9553.40    6.940  2.74
   9556.14    6.932  2.74
   9558.88    6.935  2.74
   9561.62    6.937  2.74
   9564.36    6.933  2.74
   9567.10    6.930  2.74
   9569.84    6.928  2.74
   9572.58    6.919  2.74
   9575.32    6.908  2.74
   9578.06    6.917  2.74
   9580.80    6.928  2.74
   9583.54    6.933  2.74
   9586.28    6.931  2.74
   9589.02    6.920  2.74
   9591.76    6.916  2.74
   9594.50    6.917  2.74
   9597.24    6.917  2.74
   9599.98    6.914  2.74
   9602.72    6.904  2.74
   9605.46    6.897  2.74
   9608.20    6.897  2.74
   9610.94    6.894  2.74
   9613.68    6.891  2.74
   9616.42    6.871  2.74
   9619.16    6.849  2.74
   9621.90    6.877  2.74
   9624.64    6.908  2.74
   9627.38    6.906  2.74
   9630.12    6.905  2.74
   9632.86    6.909  2.74
   9635.60    6.919  2.74
   9638.34    6.935  2.74
   9641.08    6.931  2.74
   9643.82    6.923  2.74
   9646.56    6.929  2.74
   9649.30    6.931  2.74
   9652.04    6.920  2.74
   9654.78    6.917  2.74
   9657.52    6.926  2.74
   9660.26    6.924  2.74
   9663.00    6.918  2.74
   9665.74    6.919  2.74
   9668.48    6.922  2.74
   9671.22    6.924  2.74
   9673.96    6.924  2.74
   9676.70    6.922  2.74
   9679.44    6.922  2.74
   9682.18    6.923  2.74
   9684.92    6.923  2.74
   9687.66    6.922  2.74
   9690.40    6.918  2.74
   9693.14    6.911  2.74
   9695.88    6.896  2.74
   9698.62    6.892  2.74
   9701.36    6.905  2.74
   9704.10    6.889  2.74
   9706.84    6.863  2.74
   9709.58    6.873  2.74
   9712.32    6.890  2.74
   9715.06    6.895  2.74
   9717.80    6.901  2.74
   9720.54    6.911  2.74
   9723.28    6.917  2.74
   9726.02    6.921  2.74
   9728.76    6.911  2.74
   9731.50    6.898  2.74
   9734.24    6.902  2.74
   9736.98    6.906  2.74
   9739.72    6.907  2.74
   9742.46    6.904  2.74
   9745.20    6.898  2.74
   9747.94    6.886  2.74
   9750.68    6.872  2.74
   9753.42    6.882  2.74
   9756.16    6.898  2.74
   9758.90    6.908  2.74
   9761.64    6.911  2.74
   9764.38    6.904  2.74
   9767.12    6.900  2.74
   9769.86    6.896  2.74
   9772.60    6.893  2.74
   9775.34    6.890  2.74
   9778.08    6.891  2.74
   9780.82    6.893  2.74
   9783.56    6.895  2.74
   9786.30    6.898  2.74
   9789.04    6.906  2.74
   9791.78    6.890  2.74
   9794.52    6.859  2.74
   9797.26    6.854  2.74
   9800.00    6.856  2.74
   9802.74    6.857  2.74
   9805.48    6.858  2.74
   9808.22    6.854  2.74
   9810.96    6.861  2.74
   9813.70    6.880  2.74
   9816.44    6.896  2.74
   9819.18    6.909  2.74
   9821.92    6.908  2.74
   9824.66    6.900  2.74
   9827.40    6.888  2.74
   9830.14    6.879  2.74
   9832.88    6.870  2.74
   9835.62    6.868  2.74
   9838.36    6.869  2.74
   9841.10    6.865  2.74
   9843.84    6.861  2.74
   9846.58    6.865  2.74
   9849.32    6.867  2.74
   9852.06    6.857  2.74
   9854.80    6.856  2.74
   9857.54    6.866  2.74
   9860.28    6.869  2.74
   9863.02    6.869  2.74
   9865.76    6.859  2.74
   9868.50    6.852  2.74
   9871.24    6.862  2.74
   9873.98    6.868  2.74
   9876.72    6.865  2.74
   9879.46    6.865  2.74
   9882.20    6.865  2.74
   9884.94    6.871  2.74
   9887.68    6.878  2.74
   9890.42    6.884  2.74
   9893.16    6.890  2.74
   9895.90    6.900  2.74
   9898.64    6.900  2.74
   9901.38    6.890  2.74
   9904.12    6.883  2.74
   9906.86    6.876  2.74
   9909.60    6.862  2.74
   9912.34    6.854  2.74
   9915.08    6.865  2.74
   9917.82    6.872  2.74
   9920.56    6.871  2.74
   9923.30    6.862  2.74
   9926.04    6.844  2.74
   9928.78    6.839  2.74
   9931.52    6.839  2.74
   9934.26    6.849  2.74
   9937.00    6.858  2.74
   9939.74    6.866  2.74
   9942.48    6.864  2.74
   9945.22    6.847  2.74
   9947.96    6.839  2.74
   9950.70    6.837  2.74
   9953.44    6.849  2.74
   9956.18    6.860  2.74
   9958.92    6.850  2.74
   9961.66    6.847  2.74
   9964.40    6.863  2.74
   9967.14    6.865  2.74
   9969.88    6.858  2.74
   9972.62    6.867  2.74
   9975.36    6.877  2.74
   9978.10    6.863  2.74
   9980.84    6.855  2.74
   9983.58    6.874  2.74
   9986.32    6.882  2.74
   9989.06    6.878  2.74
   9991.80    6.866  2.74
   9994.54    6.848  2.74
   9997.28    6.849  2.74
  10000.02    6.851  2.74
  10002.76    6.842  2.74
  10005.50    6.833  2.74
  10008.24    6.826  2.74
  10010.98    6.831  2.74
  10013.72    6.848  2.74
  10016.46    6.849  2.74
  10019.20    6.844  2.74
  10021.94    6.835  2.74
  10024.68    6.834  2.74
  10027.42    6.858  2.74
  10030.16    6.877  2.74
  10032.90    6.892  2.74
  10035.64    6.889  2.74
  10038.38    6.873  2.74
  10041.12    6.870  2.74
  10043.86    6.867  2.74
  10046.60    6.856  2.74
  10049.34    6.847  2.74
  10052.08    6.841  2.74
  10054.82    6.841  2.74
  10057.56    6.848  2.74
  10060.30    6.831  2.74
  10063.04    6.809  2.74
  10065.78    6.824  2.74
  10068.52    6.843  2.74
  10071.26    6.849  2.74
  10074.00    6.845  2.74
  10076.74    6.824  2.74
  10079.48    6.826  2.74
  10082.22    6.841  2.74
  10084.96    6.832  2.74
  10087.70    6.818  2.74
  10090.44    6.812  2.74
  10093.18    6.812  2.74
  10095.92    6.819  2.74
  10098.66    6.823  2.74
  10101.40    6.824  2.74
  10104.14    6.820  2.74
  10106.88    6.817  2.74
  10109.62    6.824  2.74
  10112.36    6.838  2.74
  10115.10    6.865  2.74
  10117.84    6.882  2.74
  10120.58    6.889  2.74
  10123.32    6.879  2.74
  10126.06    6.856  2.74
  10128.80    6.856  2.74
  10131.54    6.858  2.74
  10134.28    6.839  2.74
  10137.02    6.827  2.74
  10139.76    6.837  2.74
  10142.50    6.843  2.74
  10145.24    6.842  2.74
  10147.98    6.850  2.74
  10150.72    6.859  2.74
  10153.46    6.849  2.74
  10156.20    6.835  2.74
  10158.94    6.824  2.74
  10161.68    6.824  2.74
  10164.42    6.841  2.74
  10167.16    6.849  2.74
  10169.90    6.852  2.74
  10172.64    6.843  2.74
  10175.38    6.833  2.74
  10178.12    6.845  2.74
  10180.86    6.846  2.74
  10183.60    6.806  2.74
  10186.34    6.781  2.74
  10189.08    6.700  2.74
  10191.82    7.234  2.74
  10194.56   12.986  2.74
  10197.30-NaN       2.74
  10200.04Inf        2.74
  10202.78Inf        2.74
  10205.52Inf        2.74
