#HD083212                                                    
#                                                            
#  Heap-Lindler STIS                                         
# wavelength  ABmag  band
   2950.00   13.244  2.74
   2952.74   13.134  2.74
   2955.48   13.075  2.74
   2958.22   12.994  2.74
   2960.96   13.049  2.74
   2963.70   13.078  2.74
   2966.44   13.436  2.74
   2969.18   13.350  2.74
   2971.92   13.147  2.74
   2974.66   12.938  2.74
   2977.40   12.866  2.74
   2980.14   13.115  2.74
   2982.88   13.336  2.74
   2985.62   13.283  2.74
   2988.36   12.959  2.74
   2991.10   12.794  2.74
   2993.84   12.927  2.74
   2996.58   12.830  2.74
   2999.32   13.003  2.74
   3002.06   13.169  2.74
   3004.80   12.951  2.74
   3007.54   12.941  2.74
   3010.28   12.721  2.74
   3013.02   12.784  2.74
   3015.76   12.858  2.74
   3018.50   13.108  2.74
   3021.24   13.147  2.74
   3023.98   12.783  2.74
   3026.72   12.777  2.74
   3029.46   12.707  2.74
   3032.20   12.653  2.74
   3034.94   12.543  2.74
   3037.68   12.660  2.74
   3040.42   12.666  2.74
   3043.16   12.636  2.74
   3045.90   12.593  2.74
   3048.64   12.639  2.74
   3051.38   12.491  2.74
   3054.12   12.629  2.74
   3056.86   12.805  2.74
   3059.60   12.977  2.74
   3062.34   12.890  2.74
   3065.08   13.049  2.74
   3067.82   12.937  2.74
   3070.56   12.733  2.74
   3073.30   12.650  2.74
   3076.04   12.629  2.74
   3078.78   12.603  2.74
   3081.52   12.633  2.74
   3084.26   12.551  2.74
   3087.00   12.634  2.74
   3089.74   12.870  2.74
   3092.48   12.874  2.74
   3095.22   12.854  2.74
   3097.96   12.925  2.74
   3100.70   12.859  2.74
   3103.44   12.589  2.74
   3106.18   12.422  2.74
   3108.92   12.371  2.74
   3111.66   12.354  2.74
   3114.40   12.366  2.74
   3117.14   12.490  2.74
   3119.88   12.675  2.74
   3122.62   12.688  2.74
   3125.36   12.594  2.74
   3128.10   12.622  2.74
   3130.84   12.517  2.74
   3133.58   12.478  2.74
   3136.32   12.436  2.74
   3139.06   12.344  2.74
   3141.80   12.440  2.74
   3144.54   12.566  2.74
   3147.28   12.485  2.74
   3150.02   12.318  2.74
   3152.76   12.329  2.74
   3155.50   12.427  2.74
   3158.24   12.640  2.74
   3160.98   12.693  2.74
   3163.72   12.496  2.74
   3166.46   12.336  2.74
   3169.20   12.202  2.74
   3171.94   12.072  2.74
   3174.68   12.068  2.74
   3177.42   12.107  2.74
   3180.16   12.253  2.74
   3182.90   12.376  2.74
   3185.64   12.325  2.74
   3188.38   12.257  2.74
   3191.12   12.368  2.74
   3193.86   12.368  2.74
   3196.60   12.163  2.74
   3199.34   12.029  2.74
   3202.08   12.016  2.74
   3204.82   11.980  2.74
   3207.56   12.004  2.74
   3210.30   12.177  2.74
   3213.04   12.266  2.74
   3215.78   12.171  2.74
   3218.52   12.058  2.74
   3221.26   12.051  2.74
   3224.00   12.148  2.74
   3226.74   12.242  2.74
   3229.48   12.265  2.74
   3232.22   12.251  2.74
   3234.96   12.263  2.74
   3237.70   12.156  2.74
   3240.44   12.046  2.74
   3243.18   11.947  2.74
   3245.92   11.853  2.74
   3248.66   11.889  2.74
   3251.40   11.934  2.74
   3254.14   11.864  2.74
   3256.88   11.650  2.74
   3259.62   11.630  2.74
   3262.36   11.671  2.74
   3265.10   11.699  2.74
   3267.84   11.637  2.74
   3270.58   11.705  2.74
   3273.32   11.769  2.74
   3276.06   11.723  2.74
   3278.80   11.755  2.74
   3281.54   11.756  2.74
   3284.28   11.744  2.74
   3287.02   11.727  2.74
   3289.76   11.585  2.74
   3292.50   11.448  2.74
   3295.24   11.433  2.74
   3297.98   11.482  2.74
   3300.72   11.507  2.74
   3303.46   11.566  2.74
   3306.20   11.668  2.74
   3308.94   11.688  2.74
   3311.68   11.663  2.74
   3314.42   11.652  2.74
   3317.16   11.641  2.74
   3319.90   11.629  2.74
   3322.64   11.664  2.74
   3325.38   11.624  2.74
   3328.12   11.618  2.74
   3330.86   11.632  2.74
   3333.60   11.645  2.74
   3336.34   11.776  2.74
   3339.08   11.736  2.74
   3341.82   11.662  2.74
   3344.56   11.602  2.74
   3347.30   11.647  2.74
   3350.04   11.656  2.74
   3352.78   11.512  2.74
   3355.52   11.578  2.74
   3358.26   11.851  2.74
   3361.00   11.989  2.74
   3363.74   11.815  2.74
   3366.48   11.725  2.74
   3369.22   11.959  2.74
   3371.96   11.989  2.74
   3374.70   11.737  2.74
   3377.44   11.618  2.74
   3380.18   11.713  2.74
   3382.92   11.674  2.74
   3385.66   11.666  2.74
   3388.40   11.665  2.74
   3391.14   11.604  2.74
   3393.88   11.576  2.74
   3396.62   11.415  2.74
   3399.36   11.276  2.74
   3402.10   11.297  2.74
   3404.84   11.425  2.74
   3407.58   11.457  2.74
   3410.32   11.471  2.74
   3413.06   11.452  2.74
   3415.80   11.458  2.74
   3418.54   11.336  2.74
   3421.28   11.261  2.74
   3424.02   11.294  2.74
   3426.76   11.284  2.74
   3429.50   11.197  2.74
   3432.24   11.226  2.74
   3434.98   11.223  2.74
   3437.72   11.253  2.74
   3440.46   11.444  2.74
   3443.20   11.493  2.74
   3445.94   11.311  2.74
   3448.68   11.170  2.74
   3451.42   11.165  2.74
   3454.16   11.195  2.74
   3456.90   11.193  2.74
   3459.64   11.235  2.74
   3462.38   11.233  2.74
   3465.12   11.136  2.74
   3467.86   11.116  2.74
   3470.60   11.091  2.74
   3473.34   11.228  2.74
   3476.08   11.352  2.74
   3478.82   11.245  2.74
   3481.56   11.130  2.74
   3484.30   11.103  2.74
   3487.04   11.054  2.74
   3489.78   11.119  2.74
   3492.52   11.194  2.74
   3495.26   11.222  2.74
   3498.00   11.164  2.74
   3500.74   10.966  2.74
   3503.48   10.940  2.74
   3506.22   11.050  2.74
   3508.96   11.043  2.74
   3511.70   11.077  2.74
   3514.44   11.113  2.74
   3517.18   11.016  2.74
   3519.92   11.037  2.74
   3522.66   11.186  2.74
   3525.40   11.236  2.74
   3528.14   11.107  2.74
   3530.88   10.978  2.74
   3533.62   10.942  2.74
   3536.36   10.877  2.74
   3539.10   10.851  2.74
   3541.84   10.849  2.74
   3544.58   10.849  2.74
   3547.32   10.850  2.74
   3550.06   10.879  2.74
   3552.80   10.918  2.74
   3555.54   10.888  2.74
   3558.28   10.861  2.74
   3561.02   10.911  2.74
   3563.76   10.925  2.74
   3566.50   11.086  2.74
   3569.24   11.104  2.74
   3571.98   11.078  2.74
   3574.72   11.023  2.74
   3577.46   11.001  2.74
   3580.20   11.069  2.74
   3582.94   11.176  2.74
   3585.68   11.231  2.74
   3588.42   11.219  2.74
   3591.16   10.981  2.74
   3593.90   10.865  2.74
   3596.64   10.785  2.74
   3599.38   10.746  2.74
   3602.12   10.801  2.74
   3604.86   10.866  2.74
   3607.60   10.896  2.74
   3610.34   10.981  2.74
   3613.08   10.931  2.74
   3615.82   10.866  2.74
   3618.56   10.958  2.74
   3621.30   10.875  2.74
   3624.04   10.759  2.74
   3626.78   10.691  2.74
   3629.52   10.725  2.74
   3632.26   10.951  2.74
   3635.00   10.896  2.74
   3637.74   10.779  2.74
   3640.48   10.682  2.74
   3643.22   10.757  2.74
   3645.96   10.828  2.74
   3648.70   10.826  2.74
   3651.44   10.750  2.74
   3654.18   10.662  2.74
   3656.92   10.616  2.74
   3659.66   10.577  2.74
   3662.40   10.611  2.74
   3665.14   10.599  2.74
   3667.88   10.637  2.74
   3670.62   10.649  2.74
   3673.36   10.585  2.74
   3676.10   10.564  2.74
   3678.84   10.615  2.74
   3681.58   10.635  2.74
   3684.32   10.606  2.74
   3687.06   10.676  2.74
   3689.80   10.595  2.74
   3692.54   10.504  2.74
   3695.28   10.491  2.74
   3698.02   10.450  2.74
   3700.76   10.393  2.74
   3703.50   10.527  2.74
   3706.24   10.669  2.74
   3708.98   10.637  2.74
   3711.72   10.499  2.74
   3714.46   10.371  2.74
   3717.20   10.428  2.74
   3719.94   10.617  2.74
   3722.68   10.673  2.74
   3725.42   10.512  2.74
   3728.16   10.504  2.74
   3730.90   10.551  2.74
   3733.64   10.747  2.74
   3736.38   10.804  2.74
   3739.12   10.598  2.74
   3741.86   10.499  2.74
   3744.60   10.616  2.74
   3747.34   10.730  2.74
   3750.08   10.778  2.74
   3752.82   10.484  2.74
   3755.56   10.364  2.74
   3758.30   10.547  2.74
   3761.04   10.568  2.74
   3763.78   10.431  2.74
   3766.52   10.413  2.74
   3769.26   10.389  2.74
   3772.00   10.338  2.74
   3774.74   10.293  2.74
   3777.48   10.307  2.74
   3780.22   10.244  2.74
   3782.96   10.223  2.74
   3785.70   10.302  2.74
   3788.44   10.438  2.74
   3791.18   10.426  2.74
   3793.92   10.445  2.74
   3796.66   10.492  2.74
   3799.40   10.485  2.74
   3802.14   10.281  2.74
   3804.88   10.206  2.74
   3807.62   10.282  2.74
   3810.36   10.272  2.74
   3813.10   10.347  2.74
   3815.84   10.450  2.74
   3818.58   10.460  2.74
   3821.32   10.564  2.74
   3824.06   10.565  2.74
   3826.80   10.643  2.74
   3829.54   10.577  2.74
   3832.28   10.632  2.74
   3835.02   10.655  2.74
   3837.76   10.599  2.74
   3840.50   10.559  2.74
   3843.24   10.421  2.74
   3845.98   10.356  2.74
   3848.72   10.391  2.74
   3851.46   10.410  2.74
   3854.20   10.373  2.74
   3856.94   10.444  2.74
   3859.68   10.538  2.74
   3862.42   10.393  2.74
   3865.16   10.324  2.74
   3867.90   10.383  2.74
   3870.64   10.512  2.74
   3873.38   10.530  2.74
   3876.12   10.408  2.74
   3878.86   10.491  2.74
   3881.60   10.512  2.74
   3884.34   10.430  2.74
   3887.08   10.400  2.74
   3889.82   10.366  2.74
   3892.56   10.242  2.74
   3895.30   10.251  2.74
   3898.04   10.220  2.74
   3900.78   10.215  2.74
   3903.52   10.222  2.74
   3906.26   10.289  2.74
   3909.00   10.210  2.74
   3911.74   10.155  2.74
   3914.48   10.189  2.74
   3917.22   10.245  2.74
   3919.96   10.340  2.74
   3922.70   10.408  2.74
   3925.44   10.522  2.74
   3928.18   10.931  2.74
   3930.92   11.485  2.74
   3933.66   11.818  2.74
   3936.40   11.503  2.74
   3939.14   10.924  2.74
   3941.88   10.603  2.74
   3944.62   10.406  2.74
   3947.36   10.275  2.74
   3950.10   10.213  2.74
   3952.84   10.189  2.74
   3955.58   10.150  2.74
   3958.32   10.185  2.74
   3961.06   10.328  2.74
   3963.80   10.708  2.74
   3966.54   11.274  2.74
   3969.28   11.451  2.74
   3972.02   10.946  2.74
   3974.76   10.415  2.74
   3977.50   10.123  2.74
   3980.24   10.002  2.74
   3982.98    9.981  2.74
   3985.72    9.924  2.74
   3988.46    9.879  2.74
   3991.20    9.861  2.74
   3993.94    9.858  2.74
   3996.68    9.918  2.74
   3999.42    9.863  2.74
   4002.16    9.796  2.74
   4004.90    9.859  2.74
   4007.64    9.838  2.74
   4010.38    9.774  2.74
   4013.12    9.741  2.74
   4015.86    9.727  2.74
   4018.60    9.748  2.74
   4021.34    9.754  2.74
   4024.08    9.752  2.74
   4026.82    9.691  2.74
   4029.56    9.737  2.74
   4032.30    9.797  2.74
   4035.04    9.743  2.74
   4037.78    9.653  2.74
   4040.52    9.670  2.74
   4043.26    9.733  2.74
   4046.00    9.781  2.74
   4048.74    9.693  2.74
   4051.48    9.659  2.74
   4054.22    9.695  2.74
   4056.96    9.698  2.74
   4059.70    9.667  2.74
   4062.44    9.714  2.74
   4065.18    9.725  2.74
   4067.92    9.684  2.74
   4070.66    9.667  2.74
   4073.40    9.684  2.74
   4076.14    9.783  2.74
   4078.88    9.756  2.74
   4081.62    9.649  2.74
   4084.36    9.648  2.74
   4087.10    9.584  2.74
   4089.84    9.540  2.74
   4092.58    9.538  2.74
   4095.32    9.581  2.74
   4098.06    9.632  2.74
   4100.80    9.744  2.74
   4103.54    9.694  2.74
   4106.28    9.601  2.74
   4109.02    9.601  2.74
   4111.76    9.592  2.74
   4114.50    9.550  2.74
   4117.24    9.561  2.74
   4119.98    9.594  2.74
   4122.72    9.589  2.74
   4125.46    9.579  2.74
   4128.20    9.607  2.74
   4130.94    9.638  2.74
   4133.68    9.642  2.74
   4136.42    9.552  2.74
   4139.16    9.507  2.74
   4141.90    9.593  2.74
   4144.64    9.611  2.74
   4147.38    9.556  2.74
   4150.12    9.556  2.74
   4152.86    9.581  2.74
   4155.60    9.573  2.74
   4158.34    9.514  2.74
   4161.08    9.484  2.74
   4163.82    9.481  2.74
   4166.56    9.485  2.74
   4169.30    9.525  2.74
   4172.04    9.622  2.74
   4174.78    9.635  2.74
   4177.52    9.594  2.74
   4180.26    9.531  2.74
   4183.00    9.524  2.74
   4185.74    9.528  2.74
   4188.48    9.536  2.74
   4191.22    9.506  2.74
   4193.96    9.489  2.74
   4196.70    9.548  2.74
   4199.44    9.588  2.74
   4202.18    9.580  2.74
   4204.92    9.561  2.74
   4207.66    9.486  2.74
   4210.40    9.458  2.74
   4213.14    9.462  2.74
   4215.88    9.507  2.74
   4218.62    9.463  2.74
   4221.36    9.452  2.74
   4224.10    9.563  2.74
   4226.84    9.631  2.74
   4229.58    9.496  2.74
   4232.32    9.464  2.74
   4235.06    9.505  2.74
   4237.80    9.514  2.74
   4240.54    9.460  2.74
   4243.28    9.433  2.74
   4246.02    9.467  2.74
   4248.76    9.506  2.74
   4251.50    9.471  2.74
   4254.24    9.453  2.74
   4256.98    9.447  2.74
   4259.72    9.485  2.74
   4262.46    9.425  2.74
   4265.20    9.366  2.74
   4267.94    9.407  2.74
   4270.68    9.496  2.74
   4273.42    9.514  2.74
   4276.16    9.437  2.74
   4278.90    9.426  2.74
   4281.64    9.451  2.74
   4284.38    9.490  2.74
   4287.12    9.563  2.74
   4289.86    9.524  2.74
   4292.60    9.516  2.74
   4295.34    9.556  2.74
   4298.08    9.680  2.74
   4300.82    9.778  2.74
   4303.56    9.769  2.74
   4306.30    9.771  2.74
   4309.04    9.777  2.74
   4311.78    9.677  2.74
   4314.52    9.476  2.74
   4317.26    9.303  2.74
   4320.00    9.289  2.74
   4322.74    9.392  2.74
   4325.48    9.430  2.74
   4328.22    9.323  2.74
   4330.96    9.267  2.74
   4333.70    9.251  2.74
   4336.44    9.333  2.74
   4339.18    9.474  2.74
   4341.92    9.419  2.74
   4344.66    9.296  2.74
   4347.40    9.246  2.74
   4350.14    9.297  2.74
   4352.88    9.318  2.74
   4355.62    9.264  2.74
   4358.36    9.264  2.74
   4361.10    9.238  2.74
   4363.84    9.209  2.74
   4366.58    9.242  2.74
   4369.32    9.267  2.74
   4372.06    9.295  2.74
   4374.80    9.326  2.74
   4377.54    9.265  2.74
   4380.28    9.255  2.74
   4383.02    9.367  2.74
   4385.76    9.362  2.74
   4388.50    9.297  2.74
   4391.24    9.259  2.74
   4393.98    9.255  2.74
   4396.72    9.237  2.74
   4399.46    9.260  2.74
   4402.20    9.258  2.74
   4404.94    9.257  2.74
   4407.68    9.273  2.74
   4410.42    9.193  2.74
   4413.16    9.172  2.74
   4415.90    9.214  2.74
   4418.64    9.180  2.74
   4421.38    9.158  2.74
   4424.12    9.159  2.74
   4426.86    9.166  2.74
   4429.60    9.177  2.74
   4432.34    9.190  2.74
   4435.08    9.191  2.74
   4437.82    9.128  2.74
   4440.56    9.140  2.74
   4443.30    9.196  2.74
   4446.04    9.164  2.74
   4448.78    9.135  2.74
   4451.52    9.141  2.74
   4454.26    9.180  2.74
   4457.00    9.182  2.74
   4459.74    9.183  2.74
   4462.48    9.164  2.74
   4465.22    9.138  2.74
   4467.96    9.153  2.74
   4470.70    9.121  2.74
   4473.44    9.049  2.74
   4476.18    9.016  2.74
   4478.92    9.043  2.74
   4481.66    9.073  2.74
   4484.40    9.042  2.74
   4487.14    9.033  2.74
   4489.88    9.061  2.74
   4492.62    9.058  2.74
   4495.36    9.066  2.74
   4498.10    9.039  2.74
   4500.84    9.001  2.74
   4503.58    8.974  2.74
   4506.32    8.964  2.74
   4509.06    8.967  2.74
   4511.80    8.980  2.74
   4514.54    8.999  2.74
   4517.28    9.016  2.74
   4520.02    9.025  2.74
   4522.76    9.056  2.74
   4525.50    9.082  2.74
   4528.24    9.094  2.74
   4530.98    9.091  2.74
   4533.72    9.081  2.74
   4536.46    9.031  2.74
   4539.20    8.986  2.74
   4541.94    8.993  2.74
   4544.68    9.021  2.74
   4547.42    9.047  2.74
   4550.16    9.051  2.74
   4552.90    9.047  2.74
   4555.64    9.017  2.74
   4558.38    8.961  2.74
   4561.12    8.954  2.74
   4563.86    8.981  2.74
   4566.60    8.963  2.74
   4569.34    8.955  2.74
   4572.08    8.958  2.74
   4574.82    8.941  2.74
   4577.56    8.955  2.74
   4580.30    8.985  2.74
   4583.04    8.985  2.74
   4585.78    8.956  2.74
   4588.52    8.937  2.74
   4591.26    8.949  2.74
   4594.00    8.952  2.74
   4596.74    8.940  2.74
   4599.48    8.940  2.74
   4602.22    8.931  2.74
   4604.96    8.906  2.74
   4607.70    8.878  2.74
   4610.44    8.878  2.74
   4613.18    8.890  2.74
   4615.92    8.893  2.74
   4618.66    8.880  2.74
   4621.40    8.864  2.74
   4624.14    8.867  2.74
   4626.88    8.872  2.74
   4629.62    8.859  2.74
   4632.36    8.860  2.74
   4635.10    8.873  2.74
   4637.84    8.877  2.74
   4640.58    8.860  2.74
   4643.32    8.853  2.74
   4646.06    8.880  2.74
   4648.80    8.878  2.74
   4651.54    8.867  2.74
   4654.28    8.885  2.74
   4657.02    8.862  2.74
   4659.76    8.820  2.74
   4662.50    8.829  2.74
   4665.24    8.875  2.74
   4667.98    8.908  2.74
   4670.72    8.873  2.74
   4673.46    8.831  2.74
   4676.20    8.824  2.74
   4678.94    8.842  2.74
   4681.68    8.845  2.74
   4684.42    8.816  2.74
   4687.16    8.804  2.74
   4689.90    8.814  2.74
   4692.64    8.800  2.74
   4695.38    8.789  2.74
   4698.12    8.803  2.74
   4700.86    8.824  2.74
   4703.60    8.839  2.74
   4706.34    8.840  2.74
   4709.08    8.824  2.74
   4711.82    8.798  2.74
   4714.56    8.797  2.74
   4717.30    8.783  2.74
   4720.04    8.772  2.74
   4722.78    8.772  2.74
   4725.52    8.775  2.74
   4728.26    8.787  2.74
   4731.00    8.786  2.74
   4733.74    8.782  2.74
   4736.48    8.772  2.74
   4739.22    8.767  2.74
   4741.96    8.761  2.74
   4744.70    8.753  2.74
   4747.44    8.748  2.74
   4750.18    8.742  2.74
   4752.92    8.748  2.74
   4755.66    8.764  2.74
   4758.40    8.769  2.74
   4761.14    8.784  2.74
   4763.88    8.801  2.74
   4766.62    8.772  2.74
   4769.36    8.743  2.74
   4772.10    8.742  2.74
   4774.84    8.733  2.74
   4777.58    8.722  2.74
   4780.32    8.735  2.74
   4783.06    8.748  2.74
   4785.80    8.766  2.74
   4788.54    8.767  2.74
   4791.28    8.734  2.74
   4794.02    8.708  2.74
   4796.76    8.720  2.74
   4799.50    8.731  2.74
   4802.24    8.716  2.74
   4804.98    8.719  2.74
   4807.72    8.728  2.74
   4810.46    8.714  2.74
   4813.20    8.699  2.74
   4815.94    8.691  2.74
   4818.68    8.691  2.74
   4821.42    8.702  2.74
   4824.16    8.714  2.74
   4826.90    8.702  2.74
   4829.64    8.694  2.74
   4832.38    8.694  2.74
   4835.12    8.687  2.74
   4837.86    8.705  2.74
   4840.60    8.713  2.74
   4843.34    8.690  2.74
   4846.08    8.683  2.74
   4848.82    8.689  2.74
   4851.56    8.691  2.74
   4854.30    8.714  2.74
   4857.04    8.755  2.74
   4859.78    8.843  2.74
   4862.52    8.866  2.74
   4865.26    8.751  2.74
   4868.00    8.721  2.74
   4870.74    8.737  2.74
   4873.48    8.733  2.74
   4876.22    8.703  2.74
   4878.96    8.688  2.74
   4881.70    8.685  2.74
   4884.44    8.699  2.74
   4887.18    8.711  2.74
   4889.92    8.714  2.74
   4892.66    8.678  2.74
   4895.40    8.634  2.74
   4898.14    8.630  2.74
   4900.88    8.651  2.74
   4903.62    8.651  2.74
   4906.36    8.644  2.74
   4909.10    8.656  2.74
   4911.84    8.661  2.74
   4914.58    8.642  2.74
   4917.32    8.666  2.74
   4920.06    8.716  2.74
   4922.80    8.709  2.74
   4925.54    8.660  2.74
   4928.28    8.624  2.74
   4931.02    8.627  2.74
   4933.76    8.654  2.74
   4936.50    8.669  2.74
   4939.24    8.666  2.74
   4941.98    8.632  2.74
   4944.72    8.607  2.74
   4947.46    8.600  2.74
   4950.20    8.587  2.74
   4952.94    8.591  2.74
   4955.68    8.619  2.74
   4958.42    8.640  2.74
   4961.16    8.604  2.74
   4963.90    8.598  2.74
   4966.64    8.615  2.74
   4969.38    8.610  2.74
   4972.12    8.599  2.74
   4974.86    8.590  2.74
   4977.60    8.604  2.74
   4980.34    8.636  2.74
   4983.08    8.674  2.74
   4985.82    8.653  2.74
   4988.56    8.615  2.74
   4991.30    8.623  2.74
   4994.04    8.618  2.74
   4996.78    8.608  2.74
   4999.52    8.621  2.74
   5002.26    8.642  2.74
   5005.00    8.640  2.74
   5007.74    8.643  2.74
   5010.48    8.634  2.74
   5013.22    8.678  2.74
   5015.96    8.680  2.74
   5018.70    8.641  2.74
   5021.44    8.619  2.74
   5024.18    8.605  2.74
   5026.92    8.590  2.74
   5029.66    8.580  2.74
   5032.40    8.567  2.74
   5035.14    8.588  2.74
   5037.88    8.639  2.74
   5040.62    8.662  2.74
   5043.36    8.637  2.74
   5046.10    8.563  2.74
   5048.84    8.562  2.74
   5051.58    8.575  2.74
   5054.32    8.535  2.74
   5057.06    8.510  2.74
   5059.80    8.524  2.74
   5062.54    8.543  2.74
   5065.28    8.567  2.74
   5068.02    8.557  2.74
   5070.76    8.550  2.74
   5073.50    8.547  2.74
   5076.24    8.562  2.74
   5078.98    8.595  2.74
   5081.72    8.611  2.74
   5084.46    8.562  2.74
   5087.20    8.530  2.74
   5089.94    8.520  2.74
   5092.68    8.515  2.74
   5095.42    8.519  2.74
   5098.16    8.550  2.74
   5100.90    8.559  2.74
   5103.64    8.523  2.74
   5106.38    8.535  2.74
   5109.12    8.576  2.74
   5111.86    8.541  2.74
   5114.60    8.512  2.74
   5117.34    8.504  2.74
   5120.08    8.506  2.74
   5122.82    8.544  2.74
   5125.56    8.567  2.74
   5128.30    8.561  2.74
   5131.04    8.547  2.74
   5133.78    8.530  2.74
   5136.52    8.539  2.74
   5139.26    8.569  2.74
   5142.00    8.572  2.74
   5144.74    8.557  2.74
   5147.48    8.538  2.74
   5150.22    8.539  2.74
   5152.96    8.543  2.74
   5155.70    8.505  2.74
   5158.44    8.477  2.74
   5161.18    8.478  2.74
   5163.92    8.530  2.74
   5166.66    8.621  2.74
   5169.40    8.676  2.74
   5172.14    8.628  2.74
   5174.88    8.565  2.74
   5177.62    8.479  2.74
   5180.36    8.494  2.74
   5183.10    8.563  2.74
   5185.84    8.568  2.74
   5188.58    8.517  2.74
   5191.32    8.532  2.74
   5194.06    8.550  2.74
   5196.80    8.523  2.74
   5199.54    8.498  2.74
   5202.28    8.499  2.74
   5205.02    8.529  2.74
   5207.76    8.543  2.74
   5210.50    8.510  2.74
   5213.24    8.474  2.74
   5215.98    8.470  2.74
   5218.72    8.463  2.74
   5221.46    8.445  2.74
   5224.20    8.483  2.74
   5226.94    8.548  2.74
   5229.68    8.503  2.74
   5232.42    8.465  2.74
   5235.16    8.464  2.74
   5237.90    8.435  2.74
   5240.64    8.423  2.74
   5243.38    8.418  2.74
   5246.12    8.436  2.74
   5248.86    8.477  2.74
   5251.60    8.481  2.74
   5254.34    8.452  2.74
   5257.08    8.434  2.74
   5259.82    8.425  2.74
   5262.56    8.492  2.74
   5265.30    8.542  2.74
   5268.04    8.529  2.74
   5270.78    8.523  2.74
   5273.52    8.469  2.74
   5276.26    8.432  2.74
   5279.00    8.408  2.74
   5281.74    8.429  2.74
   5284.48    8.424  2.74
   5287.22    8.380  2.74
   5289.96    8.372  2.74
   5292.70    8.379  2.74
   5295.44    8.404  2.74
   5298.18    8.433  2.74
   5300.92    8.409  2.74
   5303.66    8.395  2.74
   5306.40    8.374  2.74
   5309.14    8.371  2.74
   5311.88    8.359  2.74
   5314.62    8.374  2.74
   5317.36    8.386  2.74
   5320.10    8.374  2.74
   5322.84    8.393  2.74
   5325.58    8.429  2.74
   5328.32    8.459  2.74
   5331.06    8.422  2.74
   5333.80    8.385  2.74
   5336.54    8.377  2.74
   5339.28    8.390  2.74
   5342.02    8.396  2.74
   5344.76    8.374  2.74
   5347.50    8.380  2.74
   5350.24    8.375  2.74
   5352.98    8.353  2.74
   5355.72    8.334  2.74
   5358.46    8.330  2.74
   5361.20    8.347  2.74
   5363.94    8.373  2.74
   5366.68    8.388  2.74
   5369.42    8.391  2.74
   5372.16    8.387  2.74
   5374.90    8.339  2.74
   5377.64    8.332  2.74
   5380.38    8.339  2.74
   5383.12    8.350  2.74
   5385.86    8.335  2.74
   5388.60    8.338  2.74
   5391.34    8.349  2.74
   5394.08    8.368  2.74
   5396.82    8.391  2.74
   5399.56    8.387  2.74
   5402.30    8.357  2.74
   5405.04    8.387  2.74
   5407.78    8.370  2.74
   5410.52    8.362  2.74
   5413.26    8.335  2.74
   5416.00    8.332  2.74
   5418.74    8.327  2.74
   5421.48    8.326  2.74
   5424.22    8.338  2.74
   5426.96    8.335  2.74
   5429.70    8.364  2.74
   5432.44    8.350  2.74
   5435.18    8.359  2.74
   5437.92    8.321  2.74
   5440.66    8.295  2.74
   5443.40    8.315  2.74
   5446.14    8.341  2.74
   5448.88    8.321  2.74
   5451.62    8.297  2.74
   5454.36    8.324  2.74
   5457.10    8.320  2.74
   5459.84    8.289  2.74
   5462.58    8.305  2.74
   5465.32    8.298  2.74
   5468.06    8.280  2.74
   5470.80    8.281  2.74
   5473.54    8.302  2.74
   5476.28    8.328  2.74
   5479.02    8.318  2.74
   5481.76    8.298  2.74
   5484.50    8.291  2.74
   5487.24    8.281  2.74
   5489.98    8.282  2.74
   5492.72    8.277  2.74
   5495.46    8.274  2.74
   5498.20    8.290  2.74
   5500.94    8.286  2.74
   5503.68    8.288  2.74
   5506.42    8.295  2.74
   5509.16    8.291  2.74
   5511.90    8.283  2.74
   5514.64    8.274  2.74
   5517.38    8.258  2.74
   5520.12    8.251  2.74
   5522.86    8.261  2.74
   5525.60    8.274  2.74
   5528.34    8.277  2.74
   5531.08    8.262  2.74
   5533.82    8.248  2.74
   5536.56    8.242  2.74
   5539.30    8.237  2.74
   5542.04    8.235  2.74
   5544.78    8.232  2.74
   5547.52    8.226  2.74
   5550.26    8.228  2.74
   5553.00    8.225  2.74
   5555.74    8.227  2.74
   5558.48    8.223  2.74
   5561.22    8.235  2.74
   5563.96    8.251  2.74
   5566.70    8.247  2.74
   5569.44    8.250  2.74
   5572.18    8.248  2.74
   5574.92    8.240  2.74
   5577.66    8.232  2.74
   5580.40    8.231  2.74
   5583.14    8.239  2.74
   5585.88    8.246  2.74
   5588.62    8.261  2.74
   5591.36    8.246  2.74
   5594.10    8.236  2.74
   5596.84    8.225  2.74
   5599.58    8.238  2.74
   5602.32    8.230  2.74
   5605.06    8.210  2.74
   5607.80    8.193  2.74
   5610.54    8.195  2.74
   5613.28    8.207  2.74
   5616.02    8.223  2.74
   5618.76    8.215  2.74
   5621.50    8.200  2.74
   5624.24    8.203  2.74
   5626.98    8.195  2.74
   5629.72    8.182  2.74
   5632.46    8.182  2.74
   5635.20    8.170  2.74
   5637.94    8.189  2.74
   5640.68    8.191  2.74
   5643.42    8.182  2.74
   5646.16    8.176  2.74
   5648.90    8.170  2.74
   5651.64    8.143  2.74
   5654.38    8.173  2.74
   5657.12    8.221  2.74
   5659.86    8.218  2.74
   5662.60    8.203  2.74
   5665.34    8.184  2.74
   5668.08    8.172  2.74
   5670.82    8.170  2.74
   5673.56    8.171  2.74
   5676.30    8.175  2.74
   5679.04    8.179  2.74
   5681.78    8.184  2.74
   5684.52    8.195  2.74
   5687.26    8.196  2.74
   5690.00    8.179  2.74
   5692.74    8.166  2.74
   5695.48    8.153  2.74
   5698.22    8.168  2.74
   5700.96    8.194  2.74
   5703.70    8.207  2.74
   5706.44    8.211  2.74
   5709.18    8.206  2.74
   5711.92    8.194  2.74
   5714.66    8.173  2.74
   5717.40    8.157  2.74
   5720.14    8.143  2.74
   5722.88    8.134  2.74
   5725.62    8.133  2.74
   5728.36    8.153  2.74
   5731.10    8.162  2.74
   5733.84    8.144  2.74
   5736.58    8.134  2.74
   5739.32    8.131  2.74
   5742.06    8.125  2.74
   5744.80    8.121  2.74
   5747.54    8.132  2.74
   5750.28    8.143  2.74
   5753.02    8.150  2.74
   5755.76    8.145  2.74
   5758.50    8.122  2.74
   5761.24    8.116  2.74
   5763.98    8.121  2.74
   5766.72    8.122  2.74
   5769.46    8.121  2.74
   5772.20    8.119  2.74
   5774.94    8.118  2.74
   5777.68    8.121  2.74
   5780.42    8.126  2.74
   5783.16    8.133  2.74
   5785.90    8.128  2.74
   5788.64    8.117  2.74
   5791.38    8.108  2.74
   5794.12    8.104  2.74
   5796.86    8.113  2.74
   5799.60    8.113  2.74
   5802.34    8.097  2.74
   5805.08    8.092  2.74
   5807.82    8.092  2.74
   5810.56    8.099  2.74
   5813.30    8.106  2.74
   5816.04    8.097  2.74
   5818.78    8.090  2.74
   5821.52    8.088  2.74
   5824.26    8.087  2.74
   5827.00    8.086  2.74
   5829.74    8.084  2.74
   5832.48    8.082  2.74
   5835.22    8.080  2.74
   5837.96    8.079  2.74
   5840.70    8.082  2.74
   5843.44    8.086  2.74
   5846.18    8.092  2.74
   5848.92    8.097  2.74
   5851.66    8.100  2.74
   5854.40    8.112  2.74
   5857.14    8.119  2.74
   5859.88    8.096  2.74
   5862.62    8.079  2.74
   5865.36    8.096  2.74
   5868.10    8.079  2.74
   5870.84    8.017  2.74
   5873.58    8.031  2.74
   5876.32    8.082  2.74
   5879.06    8.087  2.74
   5881.80    8.088  2.74
   5884.54    8.113  2.74
   5887.28    8.133  2.74
   5890.02    8.145  2.74
   5892.76    8.144  2.74
   5895.50    8.133  2.74
   5898.24    8.100  2.74
   5900.98    8.062  2.74
   5903.72    8.056  2.74
   5906.46    8.056  2.74
   5909.20    8.053  2.74
   5911.94    8.056  2.74
   5914.68    8.066  2.74
   5917.42    8.068  2.74
   5920.16    8.066  2.74
   5922.90    8.059  2.74
   5925.64    8.053  2.74
   5928.38    8.054  2.74
   5931.12    8.056  2.74
   5933.86    8.058  2.74
   5936.60    8.056  2.74
   5939.34    8.051  2.74
   5942.08    8.053  2.74
   5944.82    8.058  2.74
   5947.56    8.061  2.74
   5950.30    8.062  2.74
   5953.04    8.056  2.74
   5955.78    8.052  2.74
   5958.52    8.052  2.74
   5961.26    8.045  2.74
   5964.00    8.035  2.74
   5966.74    8.036  2.74
   5969.48    8.039  2.74
   5972.22    8.034  2.74
   5974.96    8.031  2.74
   5977.70    8.032  2.74
   5980.44    8.036  2.74
   5983.18    8.043  2.74
   5985.92    8.041  2.74
   5988.66    8.036  2.74
   5991.40    8.036  2.74
   5994.14    8.035  2.74
   5996.88    8.031  2.74
   5999.62    8.028  2.74
   6002.36    8.027  2.74
   6005.10    8.031  2.74
   6007.84    8.039  2.74
   6010.58    8.037  2.74
   6013.32    8.032  2.74
   6016.06    8.029  2.74
   6018.80    8.029  2.74
   6021.54    8.036  2.74
   6024.28    8.035  2.74
   6027.02    8.027  2.74
   6029.76    8.017  2.74
   6032.50    8.005  2.74
   6035.24    8.004  2.74
   6037.98    8.005  2.74
   6040.72    8.002  2.74
   6043.46    8.003  2.74
   6046.20    8.011  2.74
   6048.94    8.008  2.74
   6051.68    7.999  2.74
   6054.42    8.002  2.74
   6057.16    8.008  2.74
   6059.90    8.008  2.74
   6062.64    8.006  2.74
   6065.38    8.003  2.74
   6068.12    7.998  2.74
   6070.86    7.989  2.74
   6073.60    7.997  2.74
   6076.34    8.013  2.74
   6079.08    8.006  2.74
   6081.82    7.996  2.74
   6084.56    8.000  2.74
   6087.30    8.005  2.74
   6090.04    8.008  2.74
   6092.78    8.010  2.74
   6095.52    8.010  2.74
   6098.26    8.008  2.74
   6101.00    8.006  2.74
   6103.74    8.014  2.74
   6106.48    8.019  2.74
   6109.22    8.011  2.74
   6111.96    8.007  2.74
   6114.70    8.008  2.74
   6117.44    8.015  2.74
   6120.18    8.024  2.74
   6122.92    8.010  2.74
   6125.66    7.996  2.74
   6128.40    8.004  2.74
   6131.14    8.014  2.74
   6133.88    8.023  2.74
   6136.62    8.021  2.74
   6139.36    8.008  2.74
   6142.10    7.998  2.74
   6144.84    7.989  2.74
   6147.58    7.983  2.74
   6150.32    7.981  2.74
   6153.06    7.982  2.74
   6155.80    7.987  2.74
   6158.54    7.999  2.74
   6161.28    8.008  2.74
   6164.02    8.016  2.74
   6166.76    8.013  2.74
   6169.50    8.007  2.74
   6172.24    8.004  2.74
   6174.98    8.001  2.74
   6177.72    7.998  2.74
   6180.46    7.992  2.74
   6183.20    7.981  2.74
   6185.94    7.979  2.74
   6188.68    7.980  2.74
   6191.42    7.984  2.74
   6194.16    7.984  2.74
   6196.90    7.974  2.74
   6199.64    7.969  2.74
   6202.38    7.971  2.74
   6205.12    7.963  2.74
   6207.86    7.951  2.74
   6210.60    7.960  2.74
   6213.34    7.973  2.74
   6216.08    7.967  2.74
   6218.82    7.964  2.74
   6221.56    7.970  2.74
   6224.30    7.970  2.74
   6227.04    7.965  2.74
   6229.78    7.971  2.74
   6232.52    7.980  2.74
   6235.26    7.971  2.74
   6238.00    7.965  2.74
   6240.74    7.980  2.74
   6243.48    7.991  2.74
   6246.22    7.990  2.74
   6248.96    7.995  2.74
   6251.70    8.001  2.74
   6254.44    7.996  2.74
   6257.18    7.986  2.74
   6259.92    7.980  2.74
   6262.66    7.974  2.74
   6265.40    7.970  2.74
   6268.14    7.961  2.74
   6270.88    7.948  2.74
   6273.62    7.940  2.74
   6276.36    7.936  2.74
   6279.10    7.944  2.74
   6281.84    7.951  2.74
   6284.58    7.943  2.74
   6287.32    7.937  2.74
   6290.06    7.934  2.74
   6292.80    7.939  2.74
   6295.54    7.950  2.74
   6298.28    7.961  2.74
   6301.02    7.966  2.74
   6303.76    7.950  2.74
   6306.50    7.938  2.74
   6309.24    7.950  2.74
   6311.98    7.957  2.74
   6314.72    7.956  2.74
   6317.46    7.954  2.74
   6320.20    7.948  2.74
   6322.94    7.943  2.74
   6325.68    7.937  2.74
   6328.42    7.927  2.74
   6331.16    7.929  2.74
   6333.90    7.955  2.74
   6336.64    7.960  2.74
   6339.38    7.949  2.74
   6342.12    7.938  2.74
   6344.86    7.926  2.74
   6347.60    7.916  2.74
   6350.34    7.912  2.74
   6353.08    7.923  2.74
   6355.82    7.929  2.74
   6358.56    7.929  2.74
   6361.30    7.922  2.74
   6364.04    7.911  2.74
   6366.78    7.912  2.74
   6369.52    7.917  2.74
   6372.26    7.917  2.74
   6375.00    7.915  2.74
   6377.74    7.906  2.74
   6380.48    7.906  2.74
   6383.22    7.912  2.74
   6385.96    7.909  2.74
   6388.70    7.905  2.74
   6391.44    7.919  2.74
   6394.18    7.932  2.74
   6396.92    7.935  2.74
   6399.66    7.935  2.74
   6402.40    7.933  2.74
   6405.14    7.928  2.74
   6407.88    7.921  2.74
   6410.62    7.913  2.74
   6413.36    7.907  2.74
   6416.10    7.903  2.74
   6418.84    7.904  2.74
   6421.58    7.914  2.74
   6424.32    7.917  2.74
   6427.06    7.914  2.74
   6429.80    7.904  2.74
   6432.54    7.891  2.74
   6435.28    7.893  2.74
   6438.02    7.896  2.74
   6440.76    7.894  2.74
   6443.50    7.894  2.74
   6446.24    7.896  2.74
   6448.98    7.903  2.74
   6451.72    7.913  2.74
   6454.46    7.903  2.74
   6457.20    7.888  2.74
   6459.94    7.891  2.74
   6462.68    7.894  2.74
   6465.42    7.894  2.74
   6468.16    7.888  2.74
   6470.90    7.876  2.74
   6473.64    7.877  2.74
   6476.38    7.883  2.74
   6479.12    7.879  2.74
   6481.86    7.877  2.74
   6484.60    7.883  2.74
   6487.34    7.888  2.74
   6490.08    7.889  2.74
   6492.82    7.900  2.74
   6495.56    7.920  2.74
   6498.30    7.918  2.74
   6501.04    7.905  2.74
   6503.78    7.876  2.74
   6506.52    7.855  2.74
   6509.26    7.856  2.74
   6512.00    7.859  2.74
   6514.74    7.867  2.74
   6517.48    7.866  2.74
   6520.22    7.862  2.74
   6522.96    7.860  2.74
   6525.70    7.857  2.74
   6528.44    7.849  2.74
   6531.18    7.846  2.74
   6533.92    7.854  2.74
   6536.66    7.851  2.74
   6539.40    7.840  2.74
   6542.14    7.848  2.74
   6544.88    7.861  2.74
   6547.62    7.855  2.74
   6550.36    7.853  2.74
   6553.10    7.868  2.74
   6555.84    7.885  2.74
   6558.58    7.906  2.74
   6561.32    7.928  2.74
   6564.06    7.945  2.74
   6566.80    7.908  2.74
   6569.54    7.866  2.74
   6572.28    7.864  2.74
   6575.02    7.861  2.74
   6577.76    7.847  2.74
   6580.50    7.842  2.74
   6583.24    7.842  2.74
   6585.98    7.846  2.74
   6588.72    7.851  2.74
   6591.46    7.851  2.74
   6594.20    7.848  2.74
   6596.94    7.838  2.74
   6599.68    7.832  2.74
   6602.42    7.828  2.74
   6605.16    7.834  2.74
   6607.90    7.845  2.74
   6610.64    7.839  2.74
   6613.38    7.829  2.74
   6616.12    7.825  2.74
   6618.86    7.821  2.74
   6621.60    7.816  2.74
   6624.34    7.818  2.74
   6627.08    7.828  2.74
   6629.82    7.824  2.74
   6632.56    7.816  2.74
   6635.30    7.821  2.74
   6638.04    7.826  2.74
   6640.78    7.833  2.74
   6643.52    7.821  2.74
   6646.26    7.772  2.74
   6649.00    7.776  2.74
   6651.74    7.808  2.74
   6654.48    7.810  2.74
   6657.22    7.805  2.74
   6659.96    7.810  2.74
   6662.70    7.816  2.74
   6665.44    7.824  2.74
   6668.18    7.821  2.74
   6670.92    7.804  2.74
   6673.66    7.803  2.74
   6676.40    7.810  2.74
   6679.14    7.814  2.74
   6681.88    7.814  2.74
   6684.62    7.801  2.74
   6687.36    7.794  2.74
   6690.10    7.802  2.74
   6692.84    7.799  2.74
   6695.58    7.791  2.74
   6698.32    7.792  2.74
   6701.06    7.796  2.74
   6703.80    7.805  2.74
   6706.54    7.809  2.74
   6709.28    7.801  2.74
   6712.02    7.795  2.74
   6714.76    7.791  2.74
   6717.50    7.795  2.74
   6720.24    7.804  2.74
   6722.98    7.798  2.74
   6725.72    7.790  2.74
   6728.46    7.787  2.74
   6731.20    7.787  2.74
   6733.94    7.789  2.74
   6736.68    7.791  2.74
   6739.42    7.792  2.74
   6742.16    7.795  2.74
   6744.90    7.798  2.74
   6747.64    7.797  2.74
   6750.38    7.794  2.74
   6753.12    7.789  2.74
   6755.86    7.785  2.74
   6758.60    7.781  2.74
   6761.34    7.778  2.74
   6764.08    7.779  2.74
   6766.82    7.791  2.74
   6769.56    7.802  2.74
   6772.30    7.796  2.74
   6775.04    7.790  2.74
   6777.78    7.786  2.74
   6780.52    7.781  2.74
   6783.26    7.773  2.74
   6786.00    7.773  2.74
   6788.74    7.776  2.74
   6791.48    7.770  2.74
   6794.22    7.767  2.74
   6796.96    7.772  2.74
   6799.70    7.776  2.74
   6802.44    7.781  2.74
   6805.18    7.780  2.74
   6807.92    7.775  2.74
   6810.66    7.777  2.74
   6813.40    7.778  2.74
   6816.14    7.775  2.74
   6818.88    7.772  2.74
   6821.62    7.768  2.74
   6824.36    7.767  2.74
   6827.10    7.767  2.74
   6829.84    7.770  2.74
   6832.58    7.774  2.74
   6835.32    7.777  2.74
   6838.06    7.779  2.74
   6840.80    7.786  2.74
   6843.54    7.784  2.74
   6846.28    7.768  2.74
   6849.02    7.763  2.74
   6851.76    7.763  2.74
   6854.50    7.767  2.74
   6857.24    7.771  2.74
   6859.98    7.774  2.74
   6862.72    7.772  2.74
   6865.46    7.763  2.74
   6868.20    7.758  2.74
   6870.94    7.757  2.74
   6873.68    7.759  2.74
   6876.42    7.761  2.74
   6879.16    7.761  2.74
   6881.90    7.757  2.74
   6884.64    7.748  2.74
   6887.38    7.744  2.74
   6890.12    7.753  2.74
   6892.86    7.733  2.74
   6895.60    7.697  2.74
   6898.34    7.720  2.74
   6901.08    7.757  2.74
   6903.82    7.755  2.74
   6906.56    7.752  2.74
   6909.30    7.758  2.74
   6912.04    7.755  2.74
   6914.78    7.742  2.74
   6917.52    7.737  2.74
   6920.26    7.737  2.74
   6923.00    7.734  2.74
   6925.74    7.735  2.74
   6928.48    7.746  2.74
   6931.22    7.751  2.74
   6933.96    7.745  2.74
   6936.70    7.740  2.74
   6939.44    7.733  2.74
   6942.18    7.744  2.74
   6944.92    7.757  2.74
   6947.66    7.752  2.74
   6950.40    7.744  2.74
   6953.14    7.740  2.74
   6955.88    7.733  2.74
   6958.62    7.722  2.74
   6961.36    7.723  2.74
   6964.10    7.731  2.74
   6966.84    7.734  2.74
   6969.58    7.737  2.74
   6972.32    7.738  2.74
   6975.06    7.741  2.74
   6977.80    7.747  2.74
   6980.54    7.742  2.74
   6983.28    7.728  2.74
   6986.02    7.725  2.74
   6988.76    7.726  2.74
   6991.50    7.723  2.74
   6994.24    7.724  2.74
   6996.98    7.732  2.74
   6999.72    7.735  2.74
   7002.46    7.734  2.74
   7005.20    7.730  2.74
   7007.94    7.724  2.74
   7010.68    7.726  2.74
   7013.42    7.730  2.74
   7016.16    7.737  2.74
   7018.90    7.737  2.74
   7021.64    7.725  2.74
   7024.38    7.721  2.74
   7027.12    7.723  2.74
   7029.86    7.726  2.74
   7032.60    7.729  2.74
   7035.34    7.728  2.74
   7038.08    7.724  2.74
   7040.82    7.715  2.74
   7043.56    7.709  2.74
   7046.30    7.705  2.74
   7049.04    7.706  2.74
   7051.78    7.711  2.74
   7054.52    7.706  2.74
   7057.26    7.701  2.74
   7060.00    7.702  2.74
   7062.74    7.706  2.74
   7065.48    7.713  2.74
   7068.22    7.716  2.74
   7070.96    7.716  2.74
   7073.70    7.708  2.74
   7076.44    7.698  2.74
   7079.18    7.700  2.74
   7081.92    7.707  2.74
   7084.66    7.717  2.74
   7087.40    7.719  2.74
   7090.14    7.713  2.74
   7092.88    7.704  2.74
   7095.62    7.693  2.74
   7098.36    7.698  2.74
   7101.10    7.704  2.74
   7103.84    7.698  2.74
   7106.58    7.694  2.74
   7109.32    7.696  2.74
   7112.06    7.699  2.74
   7114.80    7.703  2.74
   7117.54    7.705  2.74
   7120.28    7.706  2.74
   7123.02    7.708  2.74
   7125.76    7.709  2.74
   7128.50    7.711  2.74
   7131.24    7.711  2.74
   7133.98    7.710  2.74
   7136.72    7.705  2.74
   7139.46    7.697  2.74
   7142.20    7.691  2.74
   7144.94    7.689  2.74
   7147.68    7.693  2.74
   7150.42    7.699  2.74
   7153.16    7.707  2.74
   7155.90    7.708  2.74
   7158.64    7.703  2.74
   7161.38    7.702  2.74
   7164.12    7.703  2.74
   7166.86    7.694  2.74
   7169.60    7.692  2.74
   7172.34    7.719  2.74
   7175.08    7.729  2.74
   7177.82    7.705  2.74
   7180.56    7.696  2.74
   7183.30    7.694  2.74
   7186.04    7.696  2.74
   7188.78    7.697  2.74
   7191.52    7.670  2.74
   7194.26    7.658  2.74
   7197.00    7.693  2.74
   7199.74    7.706  2.74
   7202.48    7.694  2.74
   7205.22    7.691  2.74
   7207.96    7.688  2.74
   7210.70    7.685  2.74
   7213.44    7.682  2.74
   7216.18    7.686  2.74
   7218.92    7.682  2.74
   7221.66    7.660  2.74
   7224.40    7.660  2.74
   7227.14    7.677  2.74
   7229.88    7.682  2.74
   7232.62    7.683  2.74
   7235.36    7.670  2.74
   7238.10    7.663  2.74
   7240.84    7.674  2.74
   7243.58    7.677  2.74
   7246.32    7.666  2.74
   7249.06    7.668  2.74
   7251.80    7.676  2.74
   7254.54    7.671  2.74
   7257.28    7.666  2.74
   7260.02    7.672  2.74
   7262.76    7.673  2.74
   7265.50    7.663  2.74
   7268.24    7.659  2.74
   7270.98    7.660  2.74
   7273.72    7.656  2.74
   7276.46    7.652  2.74
   7279.20    7.651  2.74
   7281.94    7.654  2.74
   7284.68    7.663  2.74
   7287.42    7.671  2.74
   7290.16    7.684  2.74
   7292.90    7.677  2.74
   7295.64    7.657  2.74
   7298.38    7.658  2.74
   7301.12    7.662  2.74
   7303.86    7.653  2.74
   7306.60    7.648  2.74
   7309.34    7.655  2.74
   7312.08    7.661  2.74
   7314.82    7.668  2.74
   7317.56    7.661  2.74
   7320.30    7.647  2.74
   7323.04    7.642  2.74
   7325.78    7.642  2.74
   7328.52    7.651  2.74
   7331.26    7.655  2.74
   7334.00    7.648  2.74
   7336.74    7.646  2.74
   7339.48    7.645  2.74
   7342.22    7.649  2.74
   7344.96    7.654  2.74
   7347.70    7.655  2.74
   7350.44    7.656  2.74
   7353.18    7.665  2.74
   7355.92    7.659  2.74
   7358.66    7.636  2.74
   7361.40    7.637  2.74
   7364.14    7.647  2.74
   7366.88    7.647  2.74
   7369.62    7.644  2.74
   7372.36    7.641  2.74
   7375.10    7.638  2.74
   7377.84    7.633  2.74
   7380.58    7.636  2.74
   7383.32    7.644  2.74
   7386.06    7.649  2.74
   7388.80    7.650  2.74
   7391.54    7.647  2.74
   7394.28    7.644  2.74
   7397.02    7.642  2.74
   7399.76    7.642  2.74
   7402.50    7.644  2.74
   7405.24    7.649  2.74
   7407.98    7.656  2.74
   7410.72    7.659  2.74
   7413.46    7.661  2.74
   7416.20    7.661  2.74
   7418.94    7.657  2.74
   7421.68    7.646  2.74
   7424.42    7.636  2.74
   7427.16    7.625  2.74
   7429.90    7.621  2.74
   7432.64    7.621  2.74
   7435.38    7.623  2.74
   7438.12    7.628  2.74
   7440.86    7.641  2.74
   7443.60    7.642  2.74
   7446.34    7.629  2.74
   7449.08    7.626  2.74
   7451.82    7.628  2.74
   7454.56    7.625  2.74
   7457.30    7.622  2.74
   7460.04    7.621  2.74
   7462.78    7.622  2.74
   7465.52    7.631  2.74
   7468.26    7.631  2.74
   7471.00    7.624  2.74
   7473.74    7.625  2.74
   7476.48    7.628  2.74
   7479.22    7.624  2.74
   7481.96    7.619  2.74
   7484.70    7.620  2.74
   7487.44    7.619  2.74
   7490.18    7.615  2.74
   7492.92    7.616  2.74
   7495.66    7.621  2.74
   7498.40    7.620  2.74
   7501.14    7.618  2.74
   7503.88    7.619  2.74
   7506.62    7.621  2.74
   7509.36    7.624  2.74
   7512.10    7.623  2.74
   7514.84    7.619  2.74
   7517.58    7.617  2.74
   7520.32    7.616  2.74
   7523.06    7.617  2.74
   7525.80    7.618  2.74
   7528.54    7.609  2.74
   7531.28    7.608  2.74
   7534.02    7.622  2.74
   7536.76    7.619  2.74
   7539.50    7.609  2.74
   7542.24    7.607  2.74
   7544.98    7.607  2.74
   7547.72    7.603  2.74
   7550.46    7.603  2.74
   7553.20    7.608  2.74
   7555.94    7.612  2.74
   7558.68    7.616  2.74
   7561.42    7.616  2.74
   7564.16    7.614  2.74
   7566.90    7.611  2.74
   7569.64    7.609  2.74
   7572.38    7.612  2.74
   7575.12    7.613  2.74
   7577.86    7.611  2.74
   7580.60    7.615  2.74
   7583.34    7.621  2.74
   7586.08    7.616  2.74
   7588.82    7.607  2.74
   7591.56    7.600  2.74
   7594.30    7.596  2.74
   7597.04    7.592  2.74
   7599.78    7.595  2.74
   7602.52    7.606  2.74
   7605.26    7.606  2.74
   7608.00    7.603  2.74
   7610.74    7.604  2.74
   7613.48    7.606  2.74
   7616.22    7.604  2.74
   7618.96    7.603  2.74
   7621.70    7.604  2.74
   7624.44    7.599  2.74
   7627.18    7.591  2.74
   7629.92    7.587  2.74
   7632.66    7.583  2.74
   7635.40    7.579  2.74
   7638.14    7.580  2.74
   7640.88    7.596  2.74
   7643.62    7.599  2.74
   7646.36    7.587  2.74
   7649.10    7.590  2.74
   7651.84    7.599  2.74
   7654.58    7.598  2.74
   7657.32    7.599  2.74
   7660.06    7.614  2.74
   7662.80    7.623  2.74
   7665.54    7.622  2.74
   7668.28    7.612  2.74
   7671.02    7.594  2.74
   7673.76    7.588  2.74
   7676.50    7.585  2.74
   7679.24    7.578  2.74
   7681.98    7.575  2.74
   7684.72    7.578  2.74
   7687.46    7.583  2.74
   7690.20    7.590  2.74
   7692.94    7.591  2.74
   7695.68    7.590  2.74
   7698.42    7.600  2.74
   7701.16    7.607  2.74
   7703.90    7.591  2.74
   7706.64    7.583  2.74
   7709.38    7.592  2.74
   7712.12    7.593  2.74
   7714.86    7.589  2.74
   7717.60    7.580  2.74
   7720.34    7.573  2.74
   7723.08    7.586  2.74
   7725.82    7.598  2.74
   7728.56    7.592  2.74
   7731.30    7.588  2.74
   7734.04    7.588  2.74
   7736.78    7.593  2.74
   7739.52    7.601  2.74
   7742.26    7.596  2.74
   7745.00    7.589  2.74
   7747.74    7.595  2.74
   7750.48    7.595  2.74
   7753.22    7.580  2.74
   7755.96    7.573  2.74
   7758.70    7.570  2.74
   7761.44    7.566  2.74
   7764.18    7.564  2.74
   7766.92    7.573  2.74
   7769.66    7.582  2.74
   7772.40    7.583  2.74
   7775.14    7.582  2.74
   7777.88    7.576  2.74
   7780.62    7.578  2.74
   7783.36    7.585  2.74
   7786.10    7.582  2.74
   7788.84    7.577  2.74
   7791.58    7.574  2.74
   7794.32    7.573  2.74
   7797.06    7.577  2.74
   7799.80    7.577  2.74
   7802.54    7.575  2.74
   7805.28    7.566  2.74
   7808.02    7.555  2.74
   7810.76    7.557  2.74
   7813.50    7.561  2.74
   7816.24    7.558  2.74
   7818.98    7.555  2.74
   7821.72    7.555  2.74
   7824.46    7.558  2.74
   7827.20    7.565  2.74
   7829.94    7.564  2.74
   7832.68    7.560  2.74
   7835.42    7.564  2.74
   7838.16    7.565  2.74
   7840.90    7.557  2.74
   7843.64    7.556  2.74
   7846.38    7.564  2.74
   7849.12    7.569  2.74
   7851.86    7.572  2.74
   7854.60    7.576  2.74
   7857.34    7.578  2.74
   7860.08    7.576  2.74
   7862.82    7.574  2.74
   7865.56    7.570  2.74
   7868.30    7.569  2.74
   7871.04    7.569  2.74
   7873.78    7.564  2.74
   7876.52    7.560  2.74
   7879.26    7.560  2.74
   7882.00    7.557  2.74
   7884.74    7.542  2.74
   7887.48    7.538  2.74
   7890.22    7.547  2.74
   7892.96    7.548  2.74
   7895.70    7.546  2.74
   7898.44    7.545  2.74
   7901.18    7.546  2.74
   7903.92    7.555  2.74
   7906.66    7.562  2.74
   7909.40    7.562  2.74
   7912.14    7.565  2.74
   7914.88    7.572  2.74
   7917.62    7.567  2.74
   7920.36    7.559  2.74
   7923.10    7.562  2.74
   7925.84    7.563  2.74
   7928.58    7.552  2.74
   7931.32    7.549  2.74
   7934.06    7.556  2.74
   7936.80    7.562  2.74
   7939.54    7.569  2.74
   7942.28    7.564  2.74
   7945.02    7.557  2.74
   7947.76    7.554  2.74
   7950.50    7.552  2.74
   7953.24    7.550  2.74
   7955.98    7.545  2.74
   7958.72    7.537  2.74
   7961.46    7.523  2.74
   7964.20    7.512  2.74
   7966.94    7.534  2.74
   7969.68    7.555  2.74
   7972.42    7.550  2.74
   7975.16    7.545  2.74
   7977.90    7.539  2.74
   7980.64    7.535  2.74
   7983.38    7.533  2.74
   7986.12    7.529  2.74
   7988.86    7.529  2.74
   7991.60    7.537  2.74
   7994.34    7.541  2.74
   7997.08    7.536  2.74
   7999.82    7.536  2.74
   8002.56    7.541  2.74
   8005.30    7.543  2.74
   8008.04    7.544  2.74
   8010.78    7.541  2.74
   8013.52    7.535  2.74
   8016.26    7.526  2.74
   8019.00    7.523  2.74
   8021.74    7.532  2.74
   8024.48    7.538  2.74
   8027.22    7.544  2.74
   8029.96    7.540  2.74
   8032.70    7.533  2.74
   8035.44    7.535  2.74
   8038.18    7.533  2.74
   8040.92    7.519  2.74
   8043.66    7.520  2.74
   8046.40    7.539  2.74
   8049.14    7.543  2.74
   8051.88    7.539  2.74
   8054.62    7.525  2.74
   8057.36    7.512  2.74
   8060.10    7.515  2.74
   8062.84    7.518  2.74
   8065.58    7.522  2.74
   8068.32    7.523  2.74
   8071.06    7.522  2.74
   8073.80    7.529  2.74
   8076.54    7.537  2.74
   8079.28    7.533  2.74
   8082.02    7.532  2.74
   8084.76    7.541  2.74
   8087.50    7.544  2.74
   8090.24    7.540  2.74
   8092.98    7.527  2.74
   8095.72    7.509  2.74
   8098.46    7.512  2.74
   8101.20    7.519  2.74
   8103.94    7.521  2.74
   8106.68    7.523  2.74
   8109.42    7.524  2.74
   8112.16    7.528  2.74
   8114.90    7.534  2.74
   8117.64    7.523  2.74
   8120.38    7.509  2.74
   8123.12    7.524  2.74
   8125.86    7.534  2.74
   8128.60    7.515  2.74
   8131.34    7.505  2.74
   8134.08    7.505  2.74
   8136.82    7.506  2.74
   8139.56    7.509  2.74
   8142.30    7.504  2.74
   8145.04    7.500  2.74
   8147.78    7.505  2.74
   8150.52    7.505  2.74
   8153.26    7.491  2.74
   8156.00    7.494  2.74
   8158.74    7.510  2.74
   8161.48    7.510  2.74
   8164.22    7.502  2.74
   8166.96    7.497  2.74
   8169.70    7.495  2.74
   8172.44    7.499  2.74
   8175.18    7.506  2.74
   8177.92    7.519  2.74
   8180.66    7.518  2.74
   8183.40    7.510  2.74
   8186.14    7.514  2.74
   8188.88    7.517  2.74
   8191.62    7.506  2.74
   8194.36    7.502  2.74
   8197.10    7.516  2.74
   8199.84    7.519  2.74
   8202.58    7.513  2.74
   8205.32    7.518  2.74
   8208.06    7.525  2.74
   8210.80    7.519  2.74
   8213.54    7.511  2.74
   8216.28    7.506  2.74
   8219.02    7.502  2.74
   8221.76    7.501  2.74
   8224.50    7.496  2.74
   8227.24    7.489  2.74
   8229.98    7.488  2.74
   8232.72    7.488  2.74
   8235.46    7.482  2.74
   8238.20    7.485  2.74
   8240.94    7.513  2.74
   8243.68    7.515  2.74
   8246.42    7.490  2.74
   8249.16    7.491  2.74
   8251.90    7.501  2.74
   8254.64    7.501  2.74
   8257.38    7.496  2.74
   8260.12    7.482  2.74
   8262.86    7.479  2.74
   8265.60    7.496  2.74
   8268.34    7.499  2.74
   8271.08    7.494  2.74
   8273.82    7.490  2.74
   8276.56    7.487  2.74
   8279.30    7.486  2.74
   8282.04    7.487  2.74
   8284.78    7.486  2.74
   8287.52    7.494  2.74
   8290.26    7.516  2.74
   8293.00    7.510  2.74
   8295.74    7.492  2.74
   8298.48    7.491  2.74
   8301.22    7.495  2.74
   8303.96    7.500  2.74
   8306.70    7.501  2.74
   8309.44    7.493  2.74
   8312.18    7.490  2.74
   8314.92    7.488  2.74
   8317.66    7.483  2.74
   8320.40    7.478  2.74
   8323.14    7.485  2.74
   8325.88    7.495  2.74
   8328.62    7.506  2.74
   8331.36    7.508  2.74
   8334.10    7.498  2.74
   8336.84    7.495  2.74
   8339.58    7.493  2.74
   8342.32    7.490  2.74
   8345.06    7.487  2.74
   8347.80    7.483  2.74
   8350.54    7.485  2.74
   8353.28    7.499  2.74
   8356.02    7.501  2.74
   8358.76    7.494  2.74
   8361.50    7.498  2.74
   8364.24    7.505  2.74
   8366.98    7.495  2.74
   8369.72    7.486  2.74
   8372.46    7.487  2.74
   8375.20    7.486  2.74
   8377.94    7.483  2.74
   8380.68    7.492  2.74
   8383.42    7.508  2.74
   8386.16    7.504  2.74
   8388.90    7.494  2.74
   8391.64    7.488  2.74
   8394.38    7.483  2.74
   8397.12    7.476  2.74
   8399.86    7.475  2.74
   8402.60    7.479  2.74
   8405.34    7.485  2.74
   8408.08    7.492  2.74
   8410.82    7.479  2.74
   8413.56    7.469  2.74
   8416.30    7.477  2.74
   8419.04    7.478  2.74
   8421.78    7.469  2.74
   8424.52    7.471  2.74
   8427.26    7.478  2.74
   8430.00    7.478  2.74
   8432.74    7.477  2.74
   8435.48    7.490  2.74
   8438.22    7.491  2.74
   8440.96    7.462  2.74
   8443.70    7.454  2.74
   8446.44    7.465  2.74
   8449.18    7.460  2.74
   8451.92    7.450  2.74
   8454.66    7.451  2.74
   8457.40    7.453  2.74
   8460.14    7.443  2.74
   8462.88    7.445  2.74
   8465.62    7.464  2.74
   8468.36    7.473  2.74
   8471.10    7.478  2.74
   8473.84    7.477  2.74
   8476.58    7.475  2.74
   8479.32    7.475  2.74
   8482.06    7.478  2.74
   8484.80    7.482  2.74
   8487.54    7.489  2.74
   8490.28    7.497  2.74
   8493.02    7.514  2.74
   8495.76    7.534  2.74
   8498.50    7.540  2.74
   8501.24    7.530  2.74
   8503.98    7.484  2.74
   8506.72    7.458  2.74
   8509.46    7.465  2.74
   8512.20    7.466  2.74
   8514.94    7.468  2.74
   8517.68    7.458  2.74
   8520.42    7.447  2.74
   8523.16    7.456  2.74
   8525.90    7.468  2.74
   8528.64    7.473  2.74
   8531.38    7.491  2.74
   8534.12    7.524  2.74
   8536.86    7.573  2.74
   8539.60    7.631  2.74
   8542.34    7.659  2.74
   8545.08    7.649  2.74
   8547.82    7.564  2.74
   8550.56    7.504  2.74
   8553.30    7.487  2.74
   8556.04    7.477  2.74
   8558.78    7.478  2.74
   8561.52    7.463  2.74
   8564.26    7.447  2.74
   8567.00    7.453  2.74
   8569.74    7.458  2.74
   8572.48    7.450  2.74
   8575.22    7.447  2.74
   8577.96    7.453  2.74
   8580.70    7.444  2.74
   8583.44    7.429  2.74
   8586.18    7.439  2.74
   8588.92    7.454  2.74
   8591.66    7.460  2.74
   8594.40    7.457  2.74
   8597.14    7.438  2.74
   8599.88    7.431  2.74
   8602.62    7.432  2.74
   8605.36    7.431  2.74
   8608.10    7.431  2.74
   8610.84    7.435  2.74
   8613.58    7.436  2.74
   8616.32    7.434  2.74
   8619.06    7.428  2.74
   8621.80    7.416  2.74
   8624.54    7.421  2.74
   8627.28    7.435  2.74
   8630.02    7.429  2.74
   8632.76    7.421  2.74
   8635.50    7.429  2.74
   8638.24    7.438  2.74
   8640.98    7.449  2.74
   8643.72    7.451  2.74
   8646.46    7.444  2.74
   8649.20    7.453  2.74
   8651.94    7.472  2.74
   8654.68    7.498  2.74
   8657.42    7.530  2.74
   8660.16    7.586  2.74
   8662.90    7.601  2.74
   8665.64    7.561  2.74
   8668.38    7.517  2.74
   8671.12    7.464  2.74
   8673.86    7.444  2.74
   8676.60    7.437  2.74
   8679.34    7.431  2.74
   8682.08    7.429  2.74
   8684.82    7.434  2.74
   8687.56    7.430  2.74
   8690.30    7.417  2.74
   8693.04    7.418  2.74
   8695.78    7.426  2.74
   8698.52    7.429  2.74
   8701.26    7.431  2.74
   8704.00    7.428  2.74
   8706.74    7.427  2.74
   8709.48    7.427  2.74
   8712.22    7.428  2.74
   8714.96    7.429  2.74
   8717.70    7.422  2.74
   8720.44    7.413  2.74
   8723.18    7.416  2.74
   8725.92    7.418  2.74
   8728.66    7.411  2.74
   8731.40    7.411  2.74
   8734.14    7.417  2.74
   8736.88    7.419  2.74
   8739.62    7.419  2.74
   8742.36    7.410  2.74
   8745.10    7.405  2.74
   8747.84    7.420  2.74
   8750.58    7.431  2.74
   8753.32    7.435  2.74
   8756.06    7.435  2.74
   8758.80    7.429  2.74
   8761.54    7.428  2.74
   8764.28    7.427  2.74
   8767.02    7.417  2.74
   8769.76    7.409  2.74
   8772.50    7.408  2.74
   8775.24    7.412  2.74
   8777.98    7.425  2.74
   8780.72    7.424  2.74
   8783.46    7.416  2.74
   8786.20    7.413  2.74
   8788.94    7.410  2.74
   8791.68    7.404  2.74
   8794.42    7.404  2.74
   8797.16    7.415  2.74
   8799.90    7.420  2.74
   8802.64    7.420  2.74
   8805.38    7.435  2.74
   8808.12    7.452  2.74
   8810.86    7.439  2.74
   8813.60    7.426  2.74
   8816.34    7.423  2.74
   8819.08    7.425  2.74
   8821.82    7.436  2.74
   8824.56    7.428  2.74
   8827.30    7.412  2.74
   8830.04    7.412  2.74
   8832.78    7.414  2.74
   8835.52    7.407  2.74
   8838.26    7.406  2.74
   8841.00    7.419  2.74
   8843.74    7.423  2.74
   8846.48    7.423  2.74
   8849.22    7.417  2.74
   8851.96    7.406  2.74
   8854.70    7.392  2.74
   8857.44    7.383  2.74
   8860.18    7.394  2.74
   8862.92    7.402  2.74
   8865.66    7.405  2.74
   8868.40    7.403  2.74
   8871.14    7.399  2.74
   8873.88    7.402  2.74
   8876.62    7.408  2.74
   8879.36    7.419  2.74
   8882.10    7.423  2.74
   8884.84    7.409  2.74
   8887.58    7.407  2.74
   8890.32    7.415  2.74
   8893.06    7.417  2.74
   8895.80    7.416  2.74
   8898.54    7.414  2.74
   8901.28    7.407  2.74
   8904.02    7.387  2.74
   8906.76    7.377  2.74
   8909.50    7.383  2.74
   8912.24    7.385  2.74
   8914.98    7.385  2.74
   8917.72    7.385  2.74
   8920.46    7.386  2.74
   8923.20    7.387  2.74
   8925.94    7.393  2.74
   8928.68    7.407  2.74
   8931.42    7.413  2.74
   8934.16    7.408  2.74
   8936.90    7.411  2.74
   8939.64    7.417  2.74
   8942.38    7.421  2.74
   8945.12    7.419  2.74
   8947.86    7.400  2.74
   8950.60    7.388  2.74
   8953.34    7.390  2.74
   8956.08    7.383  2.74
   8958.82    7.372  2.74
   8961.56    7.374  2.74
   8964.30    7.380  2.74
   8967.04    7.380  2.74
   8969.78    7.381  2.74
   8972.52    7.381  2.74
   8975.26    7.389  2.74
   8978.00    7.409  2.74
   8980.74    7.405  2.74
   8983.48    7.388  2.74
   8986.22    7.367  2.74
   8988.96    7.354  2.74
   8991.70    7.371  2.74
   8994.44    7.384  2.74
   8997.18    7.382  2.74
   8999.92    7.383  2.74
   9002.66    7.384  2.74
   9005.40    7.391  2.74
   9008.14    7.399  2.74
   9010.88    7.410  2.74
   9013.62    7.414  2.74
   9016.36    7.403  2.74
   9019.10    7.389  2.74
   9021.84    7.369  2.74
   9024.58    7.374  2.74
   9027.32    7.391  2.74
   9030.06    7.389  2.74
   9032.80    7.382  2.74
   9035.54    7.374  2.74
   9038.28    7.370  2.74
   9041.02    7.377  2.74
   9043.76    7.372  2.74
   9046.50    7.358  2.74
   9049.24    7.354  2.74
   9051.98    7.358  2.74
   9054.72    7.374  2.74
   9057.46    7.384  2.74
   9060.20    7.367  2.74
   9062.94    7.365  2.74
   9065.68    7.387  2.74
   9068.42    7.380  2.74
   9071.16    7.359  2.74
   9073.90    7.361  2.74
   9076.64    7.369  2.74
   9079.38    7.369  2.74
   9082.12    7.372  2.74
   9084.86    7.382  2.74
   9087.60    7.388  2.74
   9090.34    7.391  2.74
   9093.08    7.386  2.74
   9095.82    7.377  2.74
   9098.56    7.373  2.74
   9101.30    7.371  2.74
   9104.04    7.373  2.74
   9106.78    7.375  2.74
   9109.52    7.377  2.74
   9112.26    7.376  2.74
   9115.00    7.374  2.74
   9117.74    7.370  2.74
   9120.48    7.364  2.74
   9123.22    7.356  2.74
   9125.96    7.352  2.74
   9128.70    7.356  2.74
   9131.44    7.360  2.74
   9134.18    7.362  2.74
   9136.92    7.370  2.74
   9139.66    7.379  2.74
   9142.40    7.381  2.74
   9145.14    7.379  2.74
   9147.88    7.375  2.74
   9150.62    7.375  2.74
   9153.36    7.384  2.74
   9156.10    7.375  2.74
   9158.84    7.354  2.74
   9161.58    7.349  2.74
   9164.32    7.351  2.74
   9167.06    7.363  2.74
   9169.80    7.371  2.74
   9172.54    7.366  2.74
   9175.28    7.361  2.74
   9178.02    7.352  2.74
   9180.76    7.365  2.74
   9183.50    7.386  2.74
   9186.24    7.372  2.74
   9188.98    7.355  2.74
   9191.72    7.355  2.74
   9194.46    7.360  2.74
   9197.20    7.372  2.74
   9199.94    7.381  2.74
   9202.68    7.387  2.74
   9205.42    7.396  2.74
   9208.16    7.404  2.74
   9210.90    7.407  2.74
   9213.64    7.404  2.74
   9216.38    7.391  2.74
   9219.12    7.382  2.74
   9221.86    7.374  2.74
   9224.60    7.372  2.74
   9227.34    7.373  2.74
   9230.08    7.382  2.74
   9232.82    7.384  2.74
   9235.56    7.344  2.74
   9238.30    7.329  2.74
   9241.04    7.366  2.74
   9243.78    7.374  2.74
   9246.52    7.363  2.74
   9249.26    7.358  2.74
   9252.00    7.355  2.74
   9254.74    7.362  2.74
   9257.48    7.370  2.74
   9260.22    7.373  2.74
   9262.96    7.374  2.74
   9265.70    7.372  2.74
   9268.44    7.371  2.74
   9271.18    7.371  2.74
   9273.92    7.372  2.74
   9276.66    7.374  2.74
   9279.40    7.370  2.74
   9282.14    7.367  2.74
   9284.88    7.366  2.74
   9287.62    7.369  2.74
   9290.36    7.376  2.74
   9293.10    7.371  2.74
   9295.84    7.363  2.74
   9298.58    7.367  2.74
   9301.32    7.371  2.74
   9304.06    7.376  2.74
   9306.80    7.372  2.74
   9309.54    7.355  2.74
   9312.28    7.353  2.74
   9315.02    7.358  2.74
   9317.76    7.351  2.74
   9320.50    7.342  2.74
   9323.24    7.341  2.74
   9325.98    7.341  2.74
   9328.72    7.336  2.74
   9331.46    7.335  2.74
   9334.20    7.335  2.74
   9336.94    7.339  2.74
   9339.68    7.347  2.74
   9342.42    7.352  2.74
   9345.16    7.357  2.74
   9347.90    7.360  2.74
   9350.64    7.360  2.74
   9353.38    7.356  2.74
   9356.12    7.358  2.74
   9358.86    7.365  2.74
   9361.60    7.357  2.74
   9364.34    7.350  2.74
   9367.08    7.362  2.74
   9369.82    7.376  2.74
   9372.56    7.390  2.74
   9375.30    7.392  2.74
   9378.04    7.382  2.74
   9380.78    7.375  2.74
   9383.52    7.366  2.74
   9386.26    7.356  2.74
   9389.00    7.348  2.74
   9391.74    7.349  2.74
   9394.48    7.350  2.74
   9397.22    7.347  2.74
   9399.96    7.347  2.74
   9402.70    7.349  2.74
   9405.44    7.351  2.74
   9408.18    7.353  2.74
   9410.92    7.356  2.74
   9413.66    7.356  2.74
   9416.40    7.346  2.74
   9419.14    7.343  2.74
   9421.88    7.343  2.74
   9424.62    7.372  2.74
   9427.36    7.412  2.74
   9430.10    7.386  2.74
   9432.84    7.352  2.74
   9435.58    7.352  2.74
   9438.32    7.355  2.74
   9441.06    7.364  2.74
   9443.80    7.358  2.74
   9446.54    7.342  2.74
   9449.28    7.344  2.74
   9452.02    7.352  2.74
   9454.76    7.355  2.74
   9457.50    7.356  2.74
   9460.24    7.356  2.74
   9462.98    7.354  2.74
   9465.72    7.347  2.74
   9468.46    7.358  2.74
   9471.20    7.379  2.74
   9473.94    7.378  2.74
   9476.68    7.372  2.74
   9479.42    7.370  2.74
   9482.16    7.372  2.74
   9484.90    7.384  2.74
   9487.64    7.382  2.74
   9490.38    7.368  2.74
   9493.12    7.368  2.74
   9495.86    7.372  2.74
   9498.60    7.372  2.74
   9501.34    7.369  2.74
   9504.08    7.356  2.74
   9506.82    7.349  2.74
   9509.56    7.351  2.74
   9512.30    7.346  2.74
   9515.04    7.337  2.74
   9517.78    7.336  2.74
   9520.52    7.337  2.74
   9523.26    7.335  2.74
   9526.00    7.333  2.74
   9528.74    7.331  2.74
   9531.48    7.327  2.74
   9534.22    7.320  2.74
   9536.96    7.333  2.74
   9539.70    7.354  2.74
   9542.44    7.364  2.74
   9545.18    7.368  2.74
   9547.92    7.364  2.74
   9550.66    7.365  2.74
   9553.40    7.374  2.74
   9556.14    7.375  2.74
   9558.88    7.371  2.74
   9561.62    7.364  2.74
   9564.36    7.358  2.74
   9567.10    7.366  2.74
   9569.84    7.370  2.74
   9572.58    7.361  2.74
   9575.32    7.356  2.74
   9578.06    7.354  2.74
   9580.80    7.354  2.74
   9583.54    7.356  2.74
   9586.28    7.343  2.74
   9589.02    7.333  2.74
   9591.76    7.340  2.74
   9594.50    7.343  2.74
   9597.24    7.334  2.74
   9599.98    7.341  2.74
   9602.72    7.357  2.74
   9605.46    7.350  2.74
   9608.20    7.338  2.74
   9610.94    7.341  2.74
   9613.68    7.334  2.74
   9616.42    7.294  2.74
   9619.16    7.295  2.74
   9621.90    7.346  2.74
   9624.64    7.342  2.74
   9627.38    7.317  2.74
   9630.12    7.326  2.74
   9632.86    7.341  2.74
   9635.60    7.351  2.74
   9638.34    7.359  2.74
   9641.08    7.364  2.74
   9643.82    7.361  2.74
   9646.56    7.351  2.74
   9649.30    7.345  2.74
   9652.04    7.344  2.74
   9654.78    7.355  2.74
   9657.52    7.365  2.74
   9660.26    7.369  2.74
   9663.00    7.366  2.74
   9665.74    7.353  2.74
   9668.48    7.348  2.74
   9671.22    7.347  2.74
   9673.96    7.345  2.74
   9676.70    7.346  2.74
   9679.44    7.360  2.74
   9682.18    7.362  2.74
   9684.92    7.340  2.74
   9687.66    7.335  2.74
   9690.40    7.341  2.74
   9693.14    7.345  2.74
   9695.88    7.344  2.74
   9698.62    7.317  2.74
   9701.36    7.296  2.74
   9704.10    7.295  2.74
   9706.84    7.309  2.74
   9709.58    7.349  2.74
   9712.32    7.350  2.74
   9715.06    7.332  2.74
   9717.80    7.348  2.74
   9720.54    7.366  2.74
   9723.28    7.359  2.74
   9726.02    7.352  2.74
   9728.76    7.347  2.74
   9731.50    7.344  2.74
   9734.24    7.341  2.74
   9736.98    7.351  2.74
   9739.72    7.363  2.74
   9742.46    7.357  2.74
   9745.20    7.346  2.74
   9747.94    7.336  2.74
   9750.68    7.330  2.74
   9753.42    7.325  2.74
   9756.16    7.334  2.74
   9758.90    7.352  2.74
   9761.64    7.358  2.74
   9764.38    7.356  2.74
   9767.12    7.343  2.74
   9769.86    7.333  2.74
   9772.60    7.335  2.74
   9775.34    7.333  2.74
   9778.08    7.327  2.74
   9780.82    7.336  2.74
   9783.56    7.351  2.74
   9786.30    7.352  2.74
   9789.04    7.345  2.74
   9791.78    7.325  2.74
   9794.52    7.313  2.74
   9797.26    7.316  2.74
   9800.00    7.309  2.74
   9802.74    7.297  2.74
   9805.48    7.295  2.74
   9808.22    7.300  2.74
   9810.96    7.315  2.74
   9813.70    7.324  2.74
   9816.44    7.320  2.74
   9819.18    7.323  2.74
   9821.92    7.336  2.74
   9824.66    7.332  2.74
   9827.40    7.321  2.74
   9830.14    7.322  2.74
   9832.88    7.320  2.74
   9835.62    7.302  2.74
   9838.36    7.291  2.74
   9841.10    7.291  2.74
   9843.84    7.295  2.74
   9846.58    7.305  2.74
   9849.32    7.316  2.74
   9852.06    7.326  2.74
   9854.80    7.328  2.74
   9857.54    7.325  2.74
   9860.28    7.314  2.74
   9863.02    7.307  2.74
   9865.76    7.305  2.74
   9868.50    7.306  2.74
   9871.24    7.311  2.74
   9873.98    7.316  2.74
   9876.72    7.320  2.74
   9879.46    7.316  2.74
   9882.20    7.318  2.74
   9884.94    7.331  2.74
   9887.68    7.338  2.74
   9890.42    7.343  2.74
   9893.16    7.347  2.74
   9895.90    7.348  2.74
   9898.64    7.333  2.74
   9901.38    7.318  2.74
   9904.12    7.308  2.74
   9906.86    7.304  2.74
   9909.60    7.305  2.74
   9912.34    7.307  2.74
   9915.08    7.310  2.74
   9917.82    7.307  2.74
   9920.56    7.303  2.74
   9923.30    7.297  2.74
   9926.04    7.295  2.74
   9928.78    7.295  2.74
   9931.52    7.304  2.74
   9934.26    7.322  2.74
   9937.00    7.307  2.74
   9939.74    7.283  2.74
   9942.48    7.295  2.74
   9945.22    7.307  2.74
   9947.96    7.298  2.74
   9950.70    7.299  2.74
   9953.44    7.313  2.74
   9956.18    7.323  2.74
   9958.92    7.331  2.74
   9961.66    7.336  2.74
   9964.40    7.331  2.74
   9967.14    7.292  2.74
   9969.88    7.274  2.74
   9972.62    7.305  2.74
   9975.36    7.316  2.74
   9978.10    7.312  2.74
   9980.84    7.319  2.74
   9983.58    7.328  2.74
   9986.32    7.332  2.74
   9989.06    7.327  2.74
   9991.80    7.300  2.74
   9994.54    7.285  2.74
   9997.28    7.290  2.74
  10000.02    7.281  2.74
  10002.76    7.267  2.74
  10005.50    7.282  2.74
  10008.24    7.305  2.74
  10010.98    7.314  2.74
  10013.72    7.325  2.74
  10016.46    7.341  2.74
  10019.20    7.353  2.74
  10021.94    7.361  2.74
  10024.68    7.368  2.74
  10027.42    7.369  2.74
  10030.16    7.346  2.74
  10032.90    7.326  2.74
  10035.64    7.335  2.74
  10038.38    7.329  2.74
  10041.12    7.291  2.74
  10043.86    7.292  2.74
  10046.60    7.318  2.74
  10049.34    7.312  2.74
  10052.08    7.299  2.74
  10054.82    7.305  2.74
  10057.56    7.309  2.74
  10060.30    7.306  2.74
  10063.04    7.298  2.74
  10065.78    7.284  2.74
  10068.52    7.294  2.74
  10071.26    7.314  2.74
  10074.00    7.311  2.74
  10076.74    7.303  2.74
  10079.48    7.303  2.74
  10082.22    7.300  2.74
  10084.96    7.288  2.74
  10087.70    7.287  2.74
  10090.44    7.291  2.74
  10093.18    7.280  2.74
  10095.92    7.272  2.74
  10098.66    7.296  2.74
  10101.40    7.317  2.74
  10104.14    7.315  2.74
  10106.88    7.306  2.74
  10109.62    7.284  2.74
  10112.36    7.284  2.74
  10115.10    7.296  2.74
  10117.84    7.321  2.74
  10120.58    7.337  2.74
  10123.32    7.308  2.74
  10126.06    7.293  2.74
  10128.80    7.305  2.74
  10131.54    7.315  2.74
  10134.28    7.326  2.74
  10137.02    7.306  2.74
  10139.76    7.283  2.74
  10142.50    7.314  2.74
  10145.24    7.345  2.74
  10147.98    7.355  2.74
  10150.72    7.340  2.74
  10153.46    7.286  2.74
  10156.20    7.284  2.74
  10158.94    7.308  2.74
  10161.68    7.309  2.74
  10164.42    7.306  2.74
  10167.16    7.306  2.74
  10169.90    7.306  2.74
  10172.64    7.311  2.74
  10175.38    7.303  2.74
  10178.12    7.283  2.74
  10180.86    7.300  2.74
  10183.60    7.329  2.74
  10186.34    7.320  2.74
  10189.08    7.307  2.74
  10191.82    7.308  2.74
  10194.56    7.297  2.74
  10197.30    7.166  2.74
  10200.04    7.646  2.74
  10202.78   11.716  2.74
  10205.52-NaN       2.74
