#HD009051                                                    
#                                                            
#  Heap-Lindler STIS                                         
# wavelength  ABmag  band
   2950.00   12.308  2.74
   2952.74   12.211  2.74
   2955.48   12.151  2.74
   2958.22   12.101  2.74
   2960.96   12.109  2.74
   2963.70   12.143  2.74
   2966.44   12.433  2.74
   2969.18   12.340  2.74
   2971.92   12.244  2.74
   2974.66   12.081  2.74
   2977.40   11.989  2.74
   2980.14   12.165  2.74
   2982.88   12.316  2.74
   2985.62   12.368  2.74
   2988.36   12.124  2.74
   2991.10   11.946  2.74
   2993.84   12.031  2.74
   2996.58   11.991  2.74
   2999.32   12.103  2.74
   3002.06   12.248  2.74
   3004.80   12.073  2.74
   3007.54   12.061  2.74
   3010.28   11.941  2.74
   3013.02   11.952  2.74
   3015.76   11.999  2.74
   3018.50   12.148  2.74
   3021.24   12.322  2.74
   3023.98   12.005  2.74
   3026.72   11.930  2.74
   3029.46   11.899  2.74
   3032.20   11.895  2.74
   3034.94   11.803  2.74
   3037.68   11.901  2.74
   3040.42   11.914  2.74
   3043.16   11.908  2.74
   3045.90   11.838  2.74
   3048.64   11.871  2.74
   3051.38   11.774  2.74
   3054.12   11.850  2.74
   3056.86   11.988  2.74
   3059.60   12.107  2.74
   3062.34   12.017  2.74
   3065.08   12.156  2.74
   3067.82   12.178  2.74
   3070.56   12.082  2.74
   3073.30   11.975  2.74
   3076.04   11.911  2.74
   3078.78   11.912  2.74
   3081.52   11.921  2.74
   3084.26   11.885  2.74
   3087.00   11.960  2.74
   3089.74   12.052  2.74
   3092.48   12.196  2.74
   3095.22   12.088  2.74
   3097.96   12.080  2.74
   3100.70   12.133  2.74
   3103.44   11.955  2.74
   3106.18   11.827  2.74
   3108.92   11.745  2.74
   3111.66   11.742  2.74
   3114.40   11.752  2.74
   3117.14   11.815  2.74
   3119.88   11.931  2.74
   3122.62   11.999  2.74
   3125.36   11.974  2.74
   3128.10   11.943  2.74
   3130.84   11.928  2.74
   3133.58   11.882  2.74
   3136.32   11.858  2.74
   3139.06   11.774  2.74
   3141.80   11.811  2.74
   3144.54   12.015  2.74
   3147.28   12.005  2.74
   3150.02   11.842  2.74
   3152.76   11.801  2.74
   3155.50   11.878  2.74
   3158.24   12.046  2.74
   3160.98   12.148  2.74
   3163.72   11.932  2.74
   3166.46   11.843  2.74
   3169.20   11.771  2.74
   3171.94   11.629  2.74
   3174.68   11.584  2.74
   3177.42   11.580  2.74
   3180.16   11.764  2.74
   3182.90   11.884  2.74
   3185.64   11.895  2.74
   3188.38   11.749  2.74
   3191.12   11.762  2.74
   3193.86   11.842  2.74
   3196.60   11.708  2.74
   3199.34   11.580  2.74
   3202.08   11.542  2.74
   3204.82   11.502  2.74
   3207.56   11.493  2.74
   3210.30   11.615  2.74
   3213.04   11.722  2.74
   3215.78   11.691  2.74
   3218.52   11.589  2.74
   3221.26   11.534  2.74
   3224.00   11.582  2.74
   3226.74   11.640  2.74
   3229.48   11.699  2.74
   3232.22   11.655  2.74
   3234.96   11.650  2.74
   3237.70   11.666  2.74
   3240.44   11.566  2.74
   3243.18   11.471  2.74
   3245.92   11.412  2.74
   3248.66   11.445  2.74
   3251.40   11.452  2.74
   3254.14   11.405  2.74
   3256.88   11.316  2.74
   3259.62   11.235  2.74
   3262.36   11.243  2.74
   3265.10   11.277  2.74
   3267.84   11.268  2.74
   3270.58   11.253  2.74
   3273.32   11.257  2.74
   3276.06   11.297  2.74
   3278.80   11.326  2.74
   3281.54   11.313  2.74
   3284.28   11.292  2.74
   3287.02   11.314  2.74
   3289.76   11.280  2.74
   3292.50   11.157  2.74
   3295.24   11.115  2.74
   3297.98   11.168  2.74
   3300.72   11.190  2.74
   3303.46   11.211  2.74
   3306.20   11.277  2.74
   3308.94   11.288  2.74
   3311.68   11.287  2.74
   3314.42   11.302  2.74
   3317.16   11.281  2.74
   3319.90   11.257  2.74
   3322.64   11.310  2.74
   3325.38   11.312  2.74
   3328.12   11.299  2.74
   3330.86   11.301  2.74
   3333.60   11.296  2.74
   3336.34   11.356  2.74
   3339.08   11.373  2.74
   3341.82   11.336  2.74
   3344.56   11.305  2.74
   3347.30   11.320  2.74
   3350.04   11.350  2.74
   3352.78   11.269  2.74
   3355.52   11.222  2.74
   3358.26   11.473  2.74
   3361.00   11.837  2.74
   3363.74   11.630  2.74
   3366.48   11.405  2.74
   3369.22   11.510  2.74
   3371.96   11.653  2.74
   3374.70   11.519  2.74
   3377.44   11.325  2.74
   3380.18   11.353  2.74
   3382.92   11.380  2.74
   3385.66   11.347  2.74
   3388.40   11.332  2.74
   3391.14   11.309  2.74
   3393.88   11.297  2.74
   3396.62   11.186  2.74
   3399.36   11.055  2.74
   3402.10   11.051  2.74
   3404.84   11.126  2.74
   3407.58   11.193  2.74
   3410.32   11.189  2.74
   3413.06   11.172  2.74
   3415.80   11.166  2.74
   3418.54   11.110  2.74
   3421.28   11.081  2.74
   3424.02   11.081  2.74
   3426.76   11.011  2.74
   3429.50   10.963  2.74
   3432.24   10.974  2.74
   3434.98   10.977  2.74
   3437.72   10.993  2.74
   3440.46   11.131  2.74
   3443.20   11.198  2.74
   3445.94   11.091  2.74
   3448.68   10.986  2.74
   3451.42   10.966  2.74
   3454.16   10.980  2.74
   3456.90   10.945  2.74
   3459.64   10.982  2.74
   3462.38   11.017  2.74
   3465.12   10.975  2.74
   3467.86   10.924  2.74
   3470.60   10.881  2.74
   3473.34   10.934  2.74
   3476.08   11.051  2.74
   3478.82   11.027  2.74
   3481.56   10.918  2.74
   3484.30   10.896  2.74
   3487.04   10.871  2.74
   3489.78   10.891  2.74
   3492.52   10.958  2.74
   3495.26   10.986  2.74
   3498.00   10.960  2.74
   3500.74   10.881  2.74
   3503.48   10.828  2.74
   3506.22   10.846  2.74
   3508.96   10.867  2.74
   3511.70   10.875  2.74
   3514.44   10.888  2.74
   3517.18   10.832  2.74
   3519.92   10.837  2.74
   3522.66   10.941  2.74
   3525.40   10.992  2.74
   3528.14   10.934  2.74
   3530.88   10.862  2.74
   3533.62   10.824  2.74
   3536.36   10.783  2.74
   3539.10   10.735  2.74
   3541.84   10.725  2.74
   3544.58   10.734  2.74
   3547.32   10.742  2.74
   3550.06   10.748  2.74
   3552.80   10.763  2.74
   3555.54   10.780  2.74
   3558.28   10.774  2.74
   3561.02   10.779  2.74
   3563.76   10.801  2.74
   3566.50   10.868  2.74
   3569.24   10.935  2.74
   3571.98   10.914  2.74
   3574.72   10.873  2.74
   3577.46   10.851  2.74
   3580.20   10.894  2.74
   3582.94   10.972  2.74
   3585.68   11.042  2.74
   3588.42   11.053  2.74
   3591.16   10.899  2.74
   3593.90   10.764  2.74
   3596.64   10.702  2.74
   3599.38   10.661  2.74
   3602.12   10.699  2.74
   3604.86   10.762  2.74
   3607.60   10.761  2.74
   3610.34   10.790  2.74
   3613.08   10.801  2.74
   3615.82   10.753  2.74
   3618.56   10.772  2.74
   3621.30   10.784  2.74
   3624.04   10.694  2.74
   3626.78   10.646  2.74
   3629.52   10.653  2.74
   3632.26   10.753  2.74
   3635.00   10.809  2.74
   3637.74   10.728  2.74
   3640.48   10.660  2.74
   3643.22   10.683  2.74
   3645.96   10.739  2.74
   3648.70   10.757  2.74
   3651.44   10.711  2.74
   3654.18   10.629  2.74
   3656.92   10.580  2.74
   3659.66   10.571  2.74
   3662.40   10.575  2.74
   3665.14   10.583  2.74
   3667.88   10.586  2.74
   3670.62   10.601  2.74
   3673.36   10.584  2.74
   3676.10   10.564  2.74
   3678.84   10.611  2.74
   3681.58   10.639  2.74
   3684.32   10.607  2.74
   3687.06   10.620  2.74
   3689.80   10.608  2.74
   3692.54   10.530  2.74
   3695.28   10.496  2.74
   3698.02   10.486  2.74
   3700.76   10.453  2.74
   3703.50   10.494  2.74
   3706.24   10.618  2.74
   3708.98   10.624  2.74
   3711.72   10.555  2.74
   3714.46   10.444  2.74
   3717.20   10.414  2.74
   3719.94   10.552  2.74
   3722.68   10.652  2.74
   3725.42   10.523  2.74
   3728.16   10.441  2.74
   3730.90   10.502  2.74
   3733.64   10.627  2.74
   3736.38   10.720  2.74
   3739.12   10.591  2.74
   3741.86   10.472  2.74
   3744.60   10.498  2.74
   3747.34   10.625  2.74
   3750.08   10.682  2.74
   3752.82   10.551  2.74
   3755.56   10.389  2.74
   3758.30   10.431  2.74
   3761.04   10.480  2.74
   3763.78   10.406  2.74
   3766.52   10.390  2.74
   3769.26   10.423  2.74
   3772.00   10.406  2.74
   3774.74   10.358  2.74
   3777.48   10.324  2.74
   3780.22   10.271  2.74
   3782.96   10.249  2.74
   3785.70   10.291  2.74
   3788.44   10.372  2.74
   3791.18   10.387  2.74
   3793.92   10.381  2.74
   3796.66   10.454  2.74
   3799.40   10.472  2.74
   3802.14   10.347  2.74
   3804.88   10.274  2.74
   3807.62   10.303  2.74
   3810.36   10.307  2.74
   3813.10   10.318  2.74
   3815.84   10.398  2.74
   3818.58   10.413  2.74
   3821.32   10.442  2.74
   3824.06   10.481  2.74
   3826.80   10.536  2.74
   3829.54   10.532  2.74
   3832.28   10.566  2.74
   3835.02   10.644  2.74
   3837.76   10.631  2.74
   3840.50   10.559  2.74
   3843.24   10.429  2.74
   3845.98   10.353  2.74
   3848.72   10.375  2.74
   3851.46   10.402  2.74
   3854.20   10.395  2.74
   3856.94   10.425  2.74
   3859.68   10.489  2.74
   3862.42   10.458  2.74
   3865.16   10.348  2.74
   3867.90   10.390  2.74
   3870.64   10.517  2.74
   3873.38   10.565  2.74
   3876.12   10.469  2.74
   3878.86   10.476  2.74
   3881.60   10.538  2.74
   3884.34   10.503  2.74
   3887.08   10.436  2.74
   3889.82   10.443  2.74
   3892.56   10.362  2.74
   3895.30   10.302  2.74
   3898.04   10.283  2.74
   3900.78   10.266  2.74
   3903.52   10.281  2.74
   3906.26   10.286  2.74
   3909.00   10.268  2.74
   3911.74   10.210  2.74
   3914.48   10.206  2.74
   3917.22   10.255  2.74
   3919.96   10.311  2.74
   3922.70   10.375  2.74
   3925.44   10.427  2.74
   3928.18   10.679  2.74
   3930.92   11.205  2.74
   3933.66   11.729  2.74
   3936.40   11.528  2.74
   3939.14   10.909  2.74
   3941.88   10.539  2.74
   3944.62   10.391  2.74
   3947.36   10.285  2.74
   3950.10   10.238  2.74
   3952.84   10.211  2.74
   3955.58   10.189  2.74
   3958.32   10.201  2.74
   3961.06   10.275  2.74
   3963.80   10.552  2.74
   3966.54   11.017  2.74
   3969.28   11.447  2.74
   3972.02   11.024  2.74
   3974.76   10.486  2.74
   3977.50   10.246  2.74
   3980.24   10.203  2.74
   3982.98   10.070  2.74
   3985.72   10.057  2.74
   3988.46   10.003  2.74
   3991.20    9.992  2.74
   3993.94    9.985  2.74
   3996.68   10.016  2.74
   3999.42   10.017  2.74
   4002.16    9.961  2.74
   4004.90    9.968  2.74
   4007.64    9.999  2.74
   4010.38    9.942  2.74
   4013.12    9.921  2.74
   4015.86    9.922  2.74
   4018.60    9.920  2.74
   4021.34    9.914  2.74
   4024.08    9.916  2.74
   4026.82    9.907  2.74
   4029.56    9.914  2.74
   4032.30    9.971  2.74
   4035.04    9.952  2.74
   4037.78    9.890  2.74
   4040.52    9.870  2.74
   4043.26    9.916  2.74
   4046.00    9.957  2.74
   4048.74    9.913  2.74
   4051.48    9.875  2.74
   4054.22    9.875  2.74
   4056.96    9.892  2.74
   4059.70    9.880  2.74
   4062.44    9.880  2.74
   4065.18    9.922  2.74
   4067.92    9.891  2.74
   4070.66    9.863  2.74
   4073.40    9.888  2.74
   4076.14    9.907  2.74
   4078.88    9.943  2.74
   4081.62    9.865  2.74
   4084.36    9.857  2.74
   4087.10    9.843  2.74
   4089.84    9.785  2.74
   4092.58    9.795  2.74
   4095.32    9.818  2.74
   4098.06    9.867  2.74
   4100.80    9.953  2.74
   4103.54    9.995  2.74
   4106.28    9.873  2.74
   4109.02    9.843  2.74
   4111.76    9.827  2.74
   4114.50    9.800  2.74
   4117.24    9.788  2.74
   4119.98    9.824  2.74
   4122.72    9.828  2.74
   4125.46    9.822  2.74
   4128.20    9.821  2.74
   4130.94    9.835  2.74
   4133.68    9.851  2.74
   4136.42    9.820  2.74
   4139.16    9.770  2.74
   4141.90    9.794  2.74
   4144.64    9.839  2.74
   4147.38    9.806  2.74
   4150.12    9.812  2.74
   4152.86    9.823  2.74
   4155.60    9.838  2.74
   4158.34    9.806  2.74
   4161.08    9.765  2.74
   4163.82    9.755  2.74
   4166.56    9.756  2.74
   4169.30    9.777  2.74
   4172.04    9.829  2.74
   4174.78    9.863  2.74
   4177.52    9.831  2.74
   4180.26    9.804  2.74
   4183.00    9.790  2.74
   4185.74    9.802  2.74
   4188.48    9.800  2.74
   4191.22    9.787  2.74
   4193.96    9.781  2.74
   4196.70    9.811  2.74
   4199.44    9.824  2.74
   4202.18    9.819  2.74
   4204.92    9.803  2.74
   4207.66    9.779  2.74
   4210.40    9.749  2.74
   4213.14    9.769  2.74
   4215.88    9.800  2.74
   4218.62    9.781  2.74
   4221.36    9.745  2.74
   4224.10    9.813  2.74
   4226.84    9.878  2.74
   4229.58    9.802  2.74
   4232.32    9.761  2.74
   4235.06    9.776  2.74
   4237.80    9.806  2.74
   4240.54    9.779  2.74
   4243.28    9.758  2.74
   4246.02    9.768  2.74
   4248.76    9.811  2.74
   4251.50    9.802  2.74
   4254.24    9.758  2.74
   4256.98    9.771  2.74
   4259.72    9.788  2.74
   4262.46    9.780  2.74
   4265.20    9.732  2.74
   4267.94    9.755  2.74
   4270.68    9.813  2.74
   4273.42    9.848  2.74
   4276.16    9.819  2.74
   4278.90    9.770  2.74
   4281.64    9.819  2.74
   4284.38    9.800  2.74
   4287.12    9.869  2.74
   4289.86    9.886  2.74
   4292.60    9.835  2.74
   4295.34    9.881  2.74
   4298.08   10.012  2.74
   4300.82   10.131  2.74
   4303.56   10.161  2.74
   4306.30   10.155  2.74
   4309.04   10.200  2.74
   4311.78   10.143  2.74
   4314.52    9.899  2.74
   4317.26    9.681  2.74
   4320.00    9.650  2.74
   4322.74    9.749  2.74
   4325.48    9.824  2.74
   4328.22    9.704  2.74
   4330.96    9.645  2.74
   4333.70    9.642  2.74
   4336.44    9.692  2.74
   4339.18    9.825  2.74
   4341.92    9.841  2.74
   4344.66    9.687  2.74
   4347.40    9.642  2.74
   4350.14    9.653  2.74
   4352.88    9.723  2.74
   4355.62    9.688  2.74
   4358.36    9.664  2.74
   4361.10    9.651  2.74
   4363.84    9.629  2.74
   4366.58    9.624  2.74
   4369.32    9.657  2.74
   4372.06    9.684  2.74
   4374.80    9.713  2.74
   4377.54    9.688  2.74
   4380.28    9.645  2.74
   4383.02    9.710  2.74
   4385.76    9.730  2.74
   4388.50    9.676  2.74
   4391.24    9.674  2.74
   4393.98    9.653  2.74
   4396.72    9.644  2.74
   4399.46    9.635  2.74
   4402.20    9.623  2.74
   4404.94    9.622  2.74
   4407.68    9.613  2.74
   4410.42    9.584  2.74
   4413.16    9.540  2.74
   4415.90    9.583  2.74
   4418.64    9.556  2.74
   4421.38    9.533  2.74
   4424.12    9.528  2.74
   4426.86    9.525  2.74
   4429.60    9.526  2.74
   4432.34    9.523  2.74
   4435.08    9.536  2.74
   4437.82    9.505  2.74
   4440.56    9.503  2.74
   4443.30    9.560  2.74
   4446.04    9.529  2.74
   4448.78    9.514  2.74
   4451.52    9.509  2.74
   4454.26    9.530  2.74
   4457.00    9.542  2.74
   4459.74    9.522  2.74
   4462.48    9.519  2.74
   4465.22    9.507  2.74
   4467.96    9.513  2.74
   4470.70    9.507  2.74
   4473.44    9.452  2.74
   4476.18    9.460  2.74
   4478.92    9.453  2.74
   4481.66    9.478  2.74
   4484.40    9.459  2.74
   4487.14    9.444  2.74
   4489.88    9.464  2.74
   4492.62    9.456  2.74
   4495.36    9.464  2.74
   4498.10    9.460  2.74
   4500.84    9.436  2.74
   4503.58    9.420  2.74
   4506.32    9.410  2.74
   4509.06    9.401  2.74
   4511.80    9.425  2.74
   4514.54    9.436  2.74
   4517.28    9.446  2.74
   4520.02    9.435  2.74
   4522.76    9.455  2.74
   4525.50    9.462  2.74
   4528.24    9.483  2.74
   4530.98    9.487  2.74
   4533.72    9.488  2.74
   4536.46    9.436  2.74
   4539.20    9.412  2.74
   4541.94    9.415  2.74
   4544.68    9.427  2.74
   4547.42    9.444  2.74
   4550.16    9.477  2.74
   4552.90    9.460  2.74
   4555.64    9.441  2.74
   4558.38    9.404  2.74
   4561.12    9.390  2.74
   4563.86    9.398  2.74
   4566.60    9.389  2.74
   4569.34    9.386  2.74
   4572.08    9.404  2.74
   4574.82    9.377  2.74
   4577.56    9.390  2.74
   4580.30    9.400  2.74
   4583.04    9.408  2.74
   4585.78    9.392  2.74
   4588.52    9.382  2.74
   4591.26    9.385  2.74
   4594.00    9.371  2.74
   4596.74    9.374  2.74
   4599.48    9.377  2.74
   4602.22    9.377  2.74
   4604.96    9.359  2.74
   4607.70    9.346  2.74
   4610.44    9.340  2.74
   4613.18    9.353  2.74
   4615.92    9.354  2.74
   4618.66    9.346  2.74
   4621.40    9.332  2.74
   4624.14    9.327  2.74
   4626.88    9.343  2.74
   4629.62    9.345  2.74
   4632.36    9.330  2.74
   4635.10    9.335  2.74
   4637.84    9.342  2.74
   4640.58    9.324  2.74
   4643.32    9.322  2.74
   4646.06    9.342  2.74
   4648.80    9.337  2.74
   4651.54    9.337  2.74
   4654.28    9.350  2.74
   4657.02    9.337  2.74
   4659.76    9.304  2.74
   4662.50    9.305  2.74
   4665.24    9.325  2.74
   4667.98    9.352  2.74
   4670.72    9.328  2.74
   4673.46    9.313  2.74
   4676.20    9.299  2.74
   4678.94    9.318  2.74
   4681.68    9.321  2.74
   4684.42    9.299  2.74
   4687.16    9.287  2.74
   4689.90    9.296  2.74
   4692.64    9.290  2.74
   4695.38    9.281  2.74
   4698.12    9.288  2.74
   4700.86    9.300  2.74
   4703.60    9.314  2.74
   4706.34    9.320  2.74
   4709.08    9.316  2.74
   4711.82    9.293  2.74
   4714.56    9.289  2.74
   4717.30    9.279  2.74
   4720.04    9.265  2.74
   4722.78    9.269  2.74
   4725.52    9.268  2.74
   4728.26    9.279  2.74
   4731.00    9.274  2.74
   4733.74    9.277  2.74
   4736.48    9.272  2.74
   4739.22    9.263  2.74
   4741.96    9.256  2.74
   4744.70    9.251  2.74
   4747.44    9.252  2.74
   4750.18    9.247  2.74
   4752.92    9.256  2.74
   4755.66    9.261  2.74
   4758.40    9.265  2.74
   4761.14    9.270  2.74
   4763.88    9.283  2.74
   4766.62    9.261  2.74
   4769.36    9.247  2.74
   4772.10    9.246  2.74
   4774.84    9.238  2.74
   4777.58    9.240  2.74
   4780.32    9.245  2.74
   4783.06    9.252  2.74
   4785.80    9.259  2.74
   4788.54    9.255  2.74
   4791.28    9.235  2.74
   4794.02    9.226  2.74
   4796.76    9.231  2.74
   4799.50    9.238  2.74
   4802.24    9.232  2.74
   4804.98    9.234  2.74
   4807.72    9.232  2.74
   4810.46    9.234  2.74
   4813.20    9.216  2.74
   4815.94    9.209  2.74
   4818.68    9.215  2.74
   4821.42    9.221  2.74
   4824.16    9.234  2.74
   4826.90    9.215  2.74
   4829.64    9.209  2.74
   4832.38    9.210  2.74
   4835.12    9.210  2.74
   4837.86    9.220  2.74
   4840.60    9.235  2.74
   4843.34    9.222  2.74
   4846.08    9.210  2.74
   4848.82    9.221  2.74
   4851.56    9.217  2.74
   4854.30    9.240  2.74
   4857.04    9.276  2.74
   4859.78    9.378  2.74
   4862.52    9.389  2.74
   4865.26    9.286  2.74
   4868.00    9.234  2.74
   4870.74    9.252  2.74
   4873.48    9.240  2.74
   4876.22    9.222  2.74
   4878.96    9.207  2.74
   4881.70    9.208  2.74
   4884.44    9.211  2.74
   4887.18    9.217  2.74
   4889.92    9.205  2.74
   4892.66    9.192  2.74
   4895.40    9.182  2.74
   4898.14    9.179  2.74
   4900.88    9.178  2.74
   4903.62    9.188  2.74
   4906.36    9.180  2.74
   4909.10    9.184  2.74
   4911.84    9.188  2.74
   4914.58    9.180  2.74
   4917.32    9.188  2.74
   4920.06    9.218  2.74
   4922.80    9.219  2.74
   4925.54    9.194  2.74
   4928.28    9.161  2.74
   4931.02    9.163  2.74
   4933.76    9.192  2.74
   4936.50    9.199  2.74
   4939.24    9.189  2.74
   4941.98    9.164  2.74
   4944.72    9.148  2.74
   4947.46    9.151  2.74
   4950.20    9.145  2.74
   4952.94    9.146  2.74
   4955.68    9.168  2.74
   4958.42    9.180  2.74
   4961.16    9.150  2.74
   4963.90    9.139  2.74
   4966.64    9.150  2.74
   4969.38    9.170  2.74
   4972.12    9.146  2.74
   4974.86    9.136  2.74
   4977.60    9.150  2.74
   4980.34    9.175  2.74
   4983.08    9.199  2.74
   4985.82    9.183  2.74
   4988.56    9.152  2.74
   4991.30    9.155  2.74
   4994.04    9.158  2.74
   4996.78    9.149  2.74
   4999.52    9.149  2.74
   5002.26    9.159  2.74
   5005.00    9.169  2.74
   5007.74    9.167  2.74
   5010.48    9.163  2.74
   5013.22    9.194  2.74
   5015.96    9.174  2.74
   5018.70    9.165  2.74
   5021.44    9.166  2.74
   5024.18    9.142  2.74
   5026.92    9.132  2.74
   5029.66    9.132  2.74
   5032.40    9.121  2.74
   5035.14    9.141  2.74
   5037.88    9.161  2.74
   5040.62    9.178  2.74
   5043.36    9.154  2.74
   5046.10    9.120  2.74
   5048.84    9.121  2.74
   5051.58    9.124  2.74
   5054.32    9.108  2.74
   5057.06    9.089  2.74
   5059.80    9.096  2.74
   5062.54    9.107  2.74
   5065.28    9.120  2.74
   5068.02    9.112  2.74
   5070.76    9.106  2.74
   5073.50    9.112  2.74
   5076.24    9.116  2.74
   5078.98    9.141  2.74
   5081.72    9.143  2.74
   5084.46    9.117  2.74
   5087.20    9.102  2.74
   5089.94    9.091  2.74
   5092.68    9.082  2.74
   5095.42    9.091  2.74
   5098.16    9.115  2.74
   5100.90    9.108  2.74
   5103.64    9.090  2.74
   5106.38    9.112  2.74
   5109.12    9.127  2.74
   5111.86    9.110  2.74
   5114.60    9.083  2.74
   5117.34    9.080  2.74
   5120.08    9.087  2.74
   5122.82    9.098  2.74
   5125.56    9.106  2.74
   5128.30    9.104  2.74
   5131.04    9.101  2.74
   5133.78    9.092  2.74
   5136.52    9.107  2.74
   5139.26    9.125  2.74
   5142.00    9.121  2.74
   5144.74    9.103  2.74
   5147.48    9.093  2.74
   5150.22    9.096  2.74
   5152.96    9.097  2.74
   5155.70    9.077  2.74
   5158.44    9.064  2.74
   5161.18    9.067  2.74
   5163.92    9.095  2.74
   5166.66    9.170  2.74
   5169.40    9.188  2.74
   5172.14    9.173  2.74
   5174.88    9.118  2.74
   5177.62    9.065  2.74
   5180.36    9.067  2.74
   5183.10    9.131  2.74
   5185.84    9.117  2.74
   5188.58    9.089  2.74
   5191.32    9.100  2.74
   5194.06    9.099  2.74
   5196.80    9.079  2.74
   5199.54    9.072  2.74
   5202.28    9.079  2.74
   5205.02    9.093  2.74
   5207.76    9.100  2.74
   5210.50    9.078  2.74
   5213.24    9.054  2.74
   5215.98    9.052  2.74
   5218.72    9.039  2.74
   5221.46    9.028  2.74
   5224.20    9.057  2.74
   5226.94    9.091  2.74
   5229.68    9.067  2.74
   5232.42    9.049  2.74
   5235.16    9.047  2.74
   5237.90    9.032  2.74
   5240.64    9.023  2.74
   5243.38    9.014  2.74
   5246.12    9.024  2.74
   5248.86    9.039  2.74
   5251.60    9.041  2.74
   5254.34    9.039  2.74
   5257.08    9.019  2.74
   5259.82    9.020  2.74
   5262.56    9.061  2.74
   5265.30    9.087  2.74
   5268.04    9.098  2.74
   5270.78    9.089  2.74
   5273.52    9.055  2.74
   5276.26    9.019  2.74
   5279.00    9.008  2.74
   5281.74    9.022  2.74
   5284.48    9.013  2.74
   5287.22    8.992  2.74
   5289.96    8.987  2.74
   5292.70    8.988  2.74
   5295.44    8.998  2.74
   5298.18    9.010  2.74
   5300.92    9.006  2.74
   5303.66    8.993  2.74
   5306.40    8.985  2.74
   5309.14    8.980  2.74
   5311.88    8.974  2.74
   5314.62    8.985  2.74
   5317.36    8.998  2.74
   5320.10    8.994  2.74
   5322.84    9.002  2.74
   5325.58    9.028  2.74
   5328.32    9.046  2.74
   5331.06    9.015  2.74
   5333.80    8.988  2.74
   5336.54    8.988  2.74
   5339.28    9.000  2.74
   5342.02    8.996  2.74
   5344.76    8.990  2.74
   5347.50    8.993  2.74
   5350.24    8.985  2.74
   5352.98    8.974  2.74
   5355.72    8.960  2.74
   5358.46    8.957  2.74
   5361.20    8.971  2.74
   5363.94    8.986  2.74
   5366.68    8.995  2.74
   5369.42    8.998  2.74
   5372.16    8.985  2.74
   5374.90    8.960  2.74
   5377.64    8.957  2.74
   5380.38    8.969  2.74
   5383.12    8.970  2.74
   5385.86    8.957  2.74
   5388.60    8.958  2.74
   5391.34    8.968  2.74
   5394.08    8.976  2.74
   5396.82    8.982  2.74
   5399.56    8.997  2.74
   5402.30    8.992  2.74
   5405.04    8.995  2.74
   5407.78    8.988  2.74
   5410.52    8.969  2.74
   5413.26    8.965  2.74
   5416.00    8.956  2.74
   5418.74    8.956  2.74
   5421.48    8.953  2.74
   5424.22    8.953  2.74
   5426.96    8.957  2.74
   5429.70    8.976  2.74
   5432.44    8.974  2.74
   5435.18    8.957  2.74
   5437.92    8.949  2.74
   5440.66    8.931  2.74
   5443.40    8.944  2.74
   5446.14    8.966  2.74
   5448.88    8.952  2.74
   5451.62    8.934  2.74
   5454.36    8.953  2.74
   5457.10    8.950  2.74
   5459.84    8.928  2.74
   5462.58    8.934  2.74
   5465.32    8.937  2.74
   5468.06    8.928  2.74
   5470.80    8.924  2.74
   5473.54    8.935  2.74
   5476.28    8.948  2.74
   5479.02    8.938  2.74
   5481.76    8.923  2.74
   5484.50    8.921  2.74
   5487.24    8.917  2.74
   5489.98    8.917  2.74
   5492.72    8.917  2.74
   5495.46    8.921  2.74
   5498.20    8.926  2.74
   5500.94    8.931  2.74
   5503.68    8.922  2.74
   5506.42    8.913  2.74
   5509.16    8.917  2.74
   5511.90    8.917  2.74
   5514.64    8.909  2.74
   5517.38    8.897  2.74
   5520.12    8.896  2.74
   5522.86    8.898  2.74
   5525.60    8.906  2.74
   5528.34    8.915  2.74
   5531.08    8.904  2.74
   5533.82    8.894  2.74
   5536.56    8.891  2.74
   5539.30    8.877  2.74
   5542.04    8.875  2.74
   5544.78    8.873  2.74
   5547.52    8.866  2.74
   5550.26    8.879  2.74
   5553.00    8.884  2.74
   5555.74    8.879  2.74
   5558.48    8.876  2.74
   5561.22    8.875  2.74
   5563.96    8.883  2.74
   5566.70    8.897  2.74
   5569.44    8.899  2.74
   5572.18    8.900  2.74
   5574.92    8.892  2.74
   5577.66    8.881  2.74
   5580.40    8.882  2.74
   5583.14    8.887  2.74
   5585.88    8.894  2.74
   5588.62    8.897  2.74
   5591.36    8.890  2.74
   5594.10    8.886  2.74
   5596.84    8.884  2.74
   5599.58    8.877  2.74
   5602.32    8.878  2.74
   5605.06    8.876  2.74
   5607.80    8.862  2.74
   5610.54    8.857  2.74
   5613.28    8.867  2.74
   5616.02    8.877  2.74
   5618.76    8.872  2.74
   5621.50    8.859  2.74
   5624.24    8.850  2.74
   5626.98    8.843  2.74
   5629.72    8.839  2.74
   5632.46    8.842  2.74
   5635.20    8.843  2.74
   5637.94    8.849  2.74
   5640.68    8.855  2.74
   5643.42    8.849  2.74
   5646.16    8.841  2.74
   5648.90    8.844  2.74
   5651.64    8.837  2.74
   5654.38    8.820  2.74
   5657.12    8.848  2.74
   5659.86    8.870  2.74
   5662.60    8.844  2.74
   5665.34    8.828  2.74
   5668.08    8.833  2.74
   5670.82    8.835  2.74
   5673.56    8.837  2.74
   5676.30    8.835  2.74
   5679.04    8.833  2.74
   5681.78    8.838  2.74
   5684.52    8.841  2.74
   5687.26    8.842  2.74
   5690.00    8.839  2.74
   5692.74    8.833  2.74
   5695.48    8.816  2.74
   5698.22    8.799  2.74
   5700.96    8.827  2.74
   5703.70    8.856  2.74
   5706.44    8.850  2.74
   5709.18    8.841  2.74
   5711.92    8.830  2.74
   5714.66    8.823  2.74
   5717.40    8.820  2.74
   5720.14    8.811  2.74
   5722.88    8.805  2.74
   5725.62    8.816  2.74
   5728.36    8.823  2.74
   5731.10    8.813  2.74
   5733.84    8.812  2.74
   5736.58    8.822  2.74
   5739.32    8.818  2.74
   5742.06    8.807  2.74
   5744.80    8.797  2.74
   5747.54    8.793  2.74
   5750.28    8.808  2.74
   5753.02    8.810  2.74
   5755.76    8.782  2.74
   5758.50    8.782  2.74
   5761.24    8.803  2.74
   5763.98    8.807  2.74
   5766.72    8.806  2.74
   5769.46    8.802  2.74
   5772.20    8.798  2.74
   5774.94    8.797  2.74
   5777.68    8.792  2.74
   5780.42    8.777  2.74
   5783.16    8.781  2.74
   5785.90    8.793  2.74
   5788.64    8.798  2.74
   5791.38    8.798  2.74
   5794.12    8.783  2.74
   5796.86    8.777  2.74
   5799.60    8.792  2.74
   5802.34    8.778  2.74
   5805.08    8.741  2.74
   5807.82    8.755  2.74
   5810.56    8.785  2.74
   5813.30    8.779  2.74
   5816.04    8.771  2.74
   5818.78    8.775  2.74
   5821.52    8.776  2.74
   5824.26    8.772  2.74
   5827.00    8.775  2.74
   5829.74    8.782  2.74
   5832.48    8.775  2.74
   5835.22    8.769  2.74
   5837.96    8.779  2.74
   5840.70    8.782  2.74
   5843.44    8.764  2.74
   5846.18    8.764  2.74
   5848.92    8.781  2.74
   5851.66    8.791  2.74
   5854.40    8.797  2.74
   5857.14    8.783  2.74
   5859.88    8.772  2.74
   5862.62    8.783  2.74
   5865.36    8.782  2.74
   5868.10    8.758  2.74
   5870.84    8.748  2.74
   5873.58    8.745  2.74
   5876.32    8.753  2.74
   5879.06    8.765  2.74
   5881.80    8.768  2.74
   5884.54    8.774  2.74
   5887.28    8.786  2.74
   5890.02    8.794  2.74
   5892.76    8.797  2.74
   5895.50    8.793  2.74
   5898.24    8.783  2.74
   5900.98    8.773  2.74
   5903.72    8.763  2.74
   5906.46    8.760  2.74
   5909.20    8.755  2.74
   5911.94    8.743  2.74
   5914.68    8.747  2.74
   5917.42    8.763  2.74
   5920.16    8.762  2.74
   5922.90    8.755  2.74
   5925.64    8.749  2.74
   5928.38    8.744  2.74
   5931.12    8.744  2.74
   5933.86    8.741  2.74
   5936.60    8.732  2.74
   5939.34    8.744  2.74
   5942.08    8.763  2.74
   5944.82    8.753  2.74
   5947.56    8.740  2.74
   5950.30    8.741  2.74
   5953.04    8.740  2.74
   5955.78    8.736  2.74
   5958.52    8.735  2.74
   5961.26    8.735  2.74
   5964.00    8.737  2.74
   5966.74    8.739  2.74
   5969.48    8.738  2.74
   5972.22    8.740  2.74
   5974.96    8.750  2.74
   5977.70    8.749  2.74
   5980.44    8.735  2.74
   5983.18    8.744  2.74
   5985.92    8.760  2.74
   5988.66    8.746  2.74
   5991.40    8.730  2.74
   5994.14    8.737  2.74
   5996.88    8.742  2.74
   5999.62    8.740  2.74
   6002.36    8.739  2.74
   6005.10    8.738  2.74
   6007.84    8.735  2.74
   6010.58    8.731  2.74
   6013.32    8.735  2.74
   6016.06    8.737  2.74
   6018.80    8.733  2.74
   6021.54    8.730  2.74
   6024.28    8.729  2.74
   6027.02    8.730  2.74
   6029.76    8.732  2.74
   6032.50    8.724  2.74
   6035.24    8.716  2.74
   6037.98    8.722  2.74
   6040.72    8.727  2.74
   6043.46    8.729  2.74
   6046.20    8.730  2.74
   6048.94    8.729  2.74
   6051.68    8.714  2.74
   6054.42    8.698  2.74
   6057.16    8.712  2.74
   6059.90    8.722  2.74
   6062.64    8.714  2.74
   6065.38    8.697  2.74
   6068.12    8.660  2.74
   6070.86    8.676  2.74
   6073.60    8.722  2.74
   6076.34    8.733  2.74
   6079.08    8.724  2.74
   6081.82    8.683  2.74
   6084.56    8.666  2.74
   6087.30    8.702  2.74
   6090.04    8.710  2.74
   6092.78    8.696  2.74
   6095.52    8.702  2.74
   6098.26    8.715  2.74
   6101.00    8.725  2.74
   6103.74    8.727  2.74
   6106.48    8.713  2.74
   6109.22    8.709  2.74
   6111.96    8.724  2.74
   6114.70    8.715  2.74
   6117.44    8.695  2.74
   6120.18    8.711  2.74
   6122.92    8.729  2.74
   6125.66    8.705  2.74
   6128.40    8.692  2.74
   6131.14    8.708  2.74
   6133.88    8.712  2.74
   6136.62    8.705  2.74
   6139.36    8.713  2.74
   6142.10    8.725  2.74
   6144.84    8.716  2.74
   6147.58    8.704  2.74
   6150.32    8.702  2.74
   6153.06    8.699  2.74
   6155.80    8.690  2.74
   6158.54    8.701  2.74
   6161.28    8.726  2.74
   6164.02    8.729  2.74
   6166.76    8.722  2.74
   6169.50    8.712  2.74
   6172.24    8.704  2.74
   6174.98    8.704  2.74
   6177.72    8.701  2.74
   6180.46    8.698  2.74
   6183.20    8.688  2.74
   6185.94    8.679  2.74
   6188.68    8.694  2.74
   6191.42    8.705  2.74
   6194.16    8.685  2.74
   6196.90    8.681  2.74
   6199.64    8.713  2.74
   6202.38    8.710  2.74
   6205.12    8.686  2.74
   6207.86    8.688  2.74
   6210.60    8.697  2.74
   6213.34    8.697  2.74
   6216.08    8.690  2.74
   6218.82    8.665  2.74
   6221.56    8.661  2.74
   6224.30    8.682  2.74
   6227.04    8.686  2.74
   6229.78    8.685  2.74
   6232.52    8.686  2.74
   6235.26    8.685  2.74
   6238.00    8.675  2.74
   6240.74    8.673  2.74
   6243.48    8.687  2.74
   6246.22    8.690  2.74
   6248.96    8.685  2.74
   6251.70    8.689  2.74
   6254.44    8.692  2.74
   6257.18    8.680  2.74
   6259.92    8.668  2.74
   6262.66    8.666  2.74
   6265.40    8.666  2.74
   6268.14    8.668  2.74
   6270.88    8.669  2.74
   6273.62    8.671  2.74
   6276.36    8.668  2.74
   6279.10    8.663  2.74
   6281.84    8.659  2.74
   6284.58    8.659  2.74
   6287.32    8.666  2.74
   6290.06    8.671  2.74
   6292.80    8.674  2.74
   6295.54    8.669  2.74
   6298.28    8.663  2.74
   6301.02    8.669  2.74
   6303.76    8.676  2.74
   6306.50    8.677  2.74
   6309.24    8.671  2.74
   6311.98    8.650  2.74
   6314.72    8.662  2.74
   6317.46    8.692  2.74
   6320.20    8.680  2.74
   6322.94    8.662  2.74
   6325.68    8.664  2.74
   6328.42    8.667  2.74
   6331.16    8.677  2.74
   6333.90    8.664  2.74
   6336.64    8.631  2.74
   6339.38    8.641  2.74
   6342.12    8.667  2.74
   6344.86    8.670  2.74
   6347.60    8.664  2.74
   6350.34    8.650  2.74
   6353.08    8.646  2.74
   6355.82    8.661  2.74
   6358.56    8.663  2.74
   6361.30    8.659  2.74
   6364.04    8.656  2.74
   6366.78    8.654  2.74
   6369.52    8.653  2.74
   6372.26    8.650  2.74
   6375.00    8.640  2.74
   6377.74    8.634  2.74
   6380.48    8.633  2.74
   6383.22    8.633  2.74
   6385.96    8.637  2.74
   6388.70    8.647  2.74
   6391.44    8.657  2.74
   6394.18    8.661  2.74
   6396.92    8.658  2.74
   6399.66    8.643  2.74
   6402.40    8.639  2.74
   6405.14    8.640  2.74
   6407.88    8.638  2.74
   6410.62    8.636  2.74
   6413.36    8.640  2.74
   6416.10    8.639  2.74
   6418.84    8.623  2.74
   6421.58    8.624  2.74
   6424.32    8.644  2.74
   6427.06    8.645  2.74
   6429.80    8.637  2.74
   6432.54    8.636  2.74
   6435.28    8.634  2.74
   6438.02    8.625  2.74
   6440.76    8.621  2.74
   6443.50    8.625  2.74
   6446.24    8.624  2.74
   6448.98    8.620  2.74
   6451.72    8.628  2.74
   6454.46    8.635  2.74
   6457.20    8.623  2.74
   6459.94    8.616  2.74
   6462.68    8.633  2.74
   6465.42    8.634  2.74
   6468.16    8.614  2.74
   6470.90    8.618  2.74
   6473.64    8.630  2.74
   6476.38    8.626  2.74
   6479.12    8.620  2.74
   6481.86    8.617  2.74
   6484.60    8.616  2.74
   6487.34    8.611  2.74
   6490.08    8.619  2.74
   6492.82    8.636  2.74
   6495.56    8.652  2.74
   6498.30    8.660  2.74
   6501.04    8.636  2.74
   6503.78    8.614  2.74
   6506.52    8.612  2.74
   6509.26    8.607  2.74
   6512.00    8.600  2.74
   6514.74    8.595  2.74
   6517.48    8.593  2.74
   6520.22    8.595  2.74
   6522.96    8.600  2.74
   6525.70    8.605  2.74
   6528.44    8.604  2.74
   6531.18    8.586  2.74
   6533.92    8.588  2.74
   6536.66    8.605  2.74
   6539.40    8.607  2.74
   6542.14    8.606  2.74
   6544.88    8.629  2.74
   6547.62    8.641  2.74
   6550.36    8.609  2.74
   6553.10    8.610  2.74
   6555.84    8.652  2.74
   6558.58    8.689  2.74
   6561.32    8.725  2.74
   6564.06    8.726  2.74
   6566.80    8.703  2.74
   6569.54    8.649  2.74
   6572.28    8.611  2.74
   6575.02    8.604  2.74
   6577.76    8.599  2.74
   6580.50    8.597  2.74
   6583.24    8.593  2.74
   6585.98    8.588  2.74
   6588.72    8.583  2.74
   6591.46    8.581  2.74
   6594.20    8.589  2.74
   6596.94    8.592  2.74
   6599.68    8.591  2.74
   6602.42    8.587  2.74
   6605.16    8.578  2.74
   6607.90    8.563  2.74
   6610.64    8.551  2.74
   6613.38    8.561  2.74
   6616.12    8.569  2.74
   6618.86    8.565  2.74
   6621.60    8.564  2.74
   6624.34    8.565  2.74
   6627.08    8.573  2.74
   6629.82    8.584  2.74
   6632.56    8.578  2.74
   6635.30    8.572  2.74
   6638.04    8.579  2.74
   6640.78    8.579  2.74
   6643.52    8.572  2.74
   6646.26    8.563  2.74
   6649.00    8.553  2.74
   6651.74    8.559  2.74
   6654.48    8.568  2.74
   6657.22    8.567  2.74
   6659.96    8.566  2.74
   6662.70    8.568  2.74
   6665.44    8.568  2.74
   6668.18    8.567  2.74
   6670.92    8.564  2.74
   6673.66    8.560  2.74
   6676.40    8.561  2.74
   6679.14    8.563  2.74
   6681.88    8.564  2.74
   6684.62    8.562  2.74
   6687.36    8.556  2.74
   6690.10    8.558  2.74
   6692.84    8.564  2.74
   6695.58    8.569  2.74
   6698.32    8.570  2.74
   6701.06    8.553  2.74
   6703.80    8.544  2.74
   6706.54    8.558  2.74
   6709.28    8.566  2.74
   6712.02    8.566  2.74
   6714.76    8.576  2.74
   6717.50    8.589  2.74
   6720.24    8.573  2.74
   6722.98    8.554  2.74
   6725.72    8.545  2.74
   6728.46    8.544  2.74
   6731.20    8.560  2.74
   6733.94    8.558  2.74
   6736.68    8.543  2.74
   6739.42    8.544  2.74
   6742.16    8.551  2.74
   6744.90    8.556  2.74
   6747.64    8.557  2.74
   6750.38    8.551  2.74
   6753.12    8.551  2.74
   6755.86    8.560  2.74
   6758.60    8.557  2.74
   6761.34    8.550  2.74
   6764.08    8.546  2.74
   6766.82    8.546  2.74
   6769.56    8.556  2.74
   6772.30    8.563  2.74
   6775.04    8.565  2.74
   6777.78    8.563  2.74
   6780.52    8.557  2.74
   6783.26    8.553  2.74
   6786.00    8.549  2.74
   6788.74    8.549  2.74
   6791.48    8.551  2.74
   6794.22    8.558  2.74
   6796.96    8.554  2.74
   6799.70    8.533  2.74
   6802.44    8.539  2.74
   6805.18    8.558  2.74
   6807.92    8.565  2.74
   6810.66    8.562  2.74
   6813.40    8.536  2.74
   6816.14    8.523  2.74
   6818.88    8.541  2.74
   6821.62    8.545  2.74
   6824.36    8.539  2.74
   6827.10    8.540  2.74
   6829.84    8.543  2.74
   6832.58    8.540  2.74
   6835.32    8.539  2.74
   6838.06    8.545  2.74
   6840.80    8.549  2.74
   6843.54    8.552  2.74
   6846.28    8.546  2.74
   6849.02    8.534  2.74
   6851.76    8.531  2.74
   6854.50    8.533  2.74
   6857.24    8.541  2.74
   6859.98    8.548  2.74
   6862.72    8.554  2.74
   6865.46    8.547  2.74
   6868.20    8.526  2.74
   6870.94    8.529  2.74
   6873.68    8.541  2.74
   6876.42    8.537  2.74
   6879.16    8.532  2.74
   6881.90    8.535  2.74
   6884.64    8.536  2.74
   6887.38    8.535  2.74
   6890.12    8.535  2.74
   6892.86    8.534  2.74
   6895.60    8.529  2.74
   6898.34    8.525  2.74
   6901.08    8.530  2.74
   6903.82    8.534  2.74
   6906.56    8.534  2.74
   6909.30    8.533  2.74
   6912.04    8.529  2.74
   6914.78    8.525  2.74
   6917.52    8.522  2.74
   6920.26    8.521  2.74
   6923.00    8.521  2.74
   6925.74    8.521  2.74
   6928.48    8.523  2.74
   6931.22    8.532  2.74
   6933.96    8.527  2.74
   6936.70    8.515  2.74
   6939.44    8.513  2.74
   6942.18    8.515  2.74
   6944.92    8.525  2.74
   6947.66    8.531  2.74
   6950.40    8.529  2.74
   6953.14    8.524  2.74
   6955.88    8.516  2.74
   6958.62    8.515  2.74
   6961.36    8.517  2.74
   6964.10    8.523  2.74
   6966.84    8.527  2.74
   6969.58    8.516  2.74
   6972.32    8.513  2.74
   6975.06    8.527  2.74
   6977.80    8.527  2.74
   6980.54    8.518  2.74
   6983.28    8.516  2.74
   6986.02    8.516  2.74
   6988.76    8.513  2.74
   6991.50    8.512  2.74
   6994.24    8.513  2.74
   6996.98    8.514  2.74
   6999.72    8.516  2.74
   7002.46    8.516  2.74
   7005.20    8.514  2.74
   7007.94    8.502  2.74
   7010.68    8.493  2.74
   7013.42    8.502  2.74
   7016.16    8.513  2.74
   7018.90    8.528  2.74
   7021.64    8.529  2.74
   7024.38    8.519  2.74
   7027.12    8.504  2.74
   7029.86    8.492  2.74
   7032.60    8.511  2.74
   7035.34    8.527  2.74
   7038.08    8.523  2.74
   7040.82    8.518  2.74
   7043.56    8.510  2.74
   7046.30    8.511  2.74
   7049.04    8.515  2.74
   7051.78    8.502  2.74
   7054.52    8.491  2.74
   7057.26    8.501  2.74
   7060.00    8.510  2.74
   7062.74    8.515  2.74
   7065.48    8.515  2.74
   7068.22    8.509  2.74
   7070.96    8.499  2.74
   7073.70    8.487  2.74
   7076.44    8.485  2.74
   7079.18    8.487  2.74
   7081.92    8.499  2.74
   7084.66    8.504  2.74
   7087.40    8.501  2.74
   7090.14    8.499  2.74
   7092.88    8.495  2.74
   7095.62    8.490  2.74
   7098.36    8.486  2.74
   7101.10    8.485  2.74
   7103.84    8.487  2.74
   7106.58    8.495  2.74
   7109.32    8.495  2.74
   7112.06    8.489  2.74
   7114.80    8.492  2.74
   7117.54    8.499  2.74
   7120.28    8.499  2.74
   7123.02    8.497  2.74
   7125.76    8.498  2.74
   7128.50    8.496  2.74
   7131.24    8.489  2.74
   7133.98    8.497  2.74
   7136.72    8.512  2.74
   7139.46    8.503  2.74
   7142.20    8.489  2.74
   7144.94    8.490  2.74
   7147.68    8.493  2.74
   7150.42    8.500  2.74
   7153.16    8.496  2.74
   7155.90    8.482  2.74
   7158.64    8.485  2.74
   7161.38    8.496  2.74
   7164.12    8.497  2.74
   7166.86    8.494  2.74
   7169.60    8.485  2.74
   7172.34    8.469  2.74
   7175.08    8.440  2.74
   7177.82    8.426  2.74
   7180.56    8.422  2.74
   7183.30    8.454  2.74
   7186.04    8.491  2.74
   7188.78    8.477  2.74
   7191.52    8.471  2.74
   7194.26    8.504  2.74
   7197.00    8.508  2.74
   7199.74    8.479  2.74
   7202.48    8.480  2.74
   7205.22    8.492  2.74
   7207.96    8.485  2.74
   7210.70    8.478  2.74
   7213.44    8.481  2.74
   7216.18    8.483  2.74
   7218.92    8.481  2.74
   7221.66    8.476  2.74
   7224.40    8.469  2.74
   7227.14    8.473  2.74
   7229.88    8.479  2.74
   7232.62    8.475  2.74
   7235.36    8.473  2.74
   7238.10    8.479  2.74
   7240.84    8.479  2.74
   7243.58    8.471  2.74
   7246.32    8.464  2.74
   7249.06    8.458  2.74
   7251.80    8.464  2.74
   7254.54    8.472  2.74
   7257.28    8.479  2.74
   7260.02    8.479  2.74
   7262.76    8.465  2.74
   7265.50    8.467  2.74
   7268.24    8.482  2.74
   7270.98    8.469  2.74
   7273.72    8.450  2.74
   7276.46    8.451  2.74
   7279.20    8.459  2.74
   7281.94    8.470  2.74
   7284.68    8.471  2.74
   7287.42    8.457  2.74
   7290.16    8.455  2.74
   7292.90    8.459  2.74
   7295.64    8.465  2.74
   7298.38    8.469  2.74
   7301.12    8.456  2.74
   7303.86    8.450  2.74
   7306.60    8.462  2.74
   7309.34    8.462  2.74
   7312.08    8.454  2.74
   7314.82    8.457  2.74
   7317.56    8.464  2.74
   7320.30    8.468  2.74
   7323.04    8.464  2.74
   7325.78    8.439  2.74
   7328.52    8.429  2.74
   7331.26    8.435  2.74
   7334.00    8.443  2.74
   7336.74    8.456  2.74
   7339.48    8.462  2.74
   7342.22    8.466  2.74
   7344.96    8.469  2.74
   7347.70    8.466  2.74
   7350.44    8.452  2.74
   7353.18    8.450  2.74
   7355.92    8.457  2.74
   7358.66    8.457  2.74
   7361.40    8.454  2.74
   7364.14    8.451  2.74
   7366.88    8.447  2.74
   7369.62    8.442  2.74
   7372.36    8.439  2.74
   7375.10    8.439  2.74
   7377.84    8.435  2.74
   7380.58    8.429  2.74
   7383.32    8.430  2.74
   7386.06    8.436  2.74
   7388.80    8.447  2.74
   7391.54    8.456  2.74
   7394.28    8.460  2.74
   7397.02    8.460  2.74
   7399.76    8.455  2.74
   7402.50    8.455  2.74
   7405.24    8.456  2.74
   7407.98    8.455  2.74
   7410.72    8.456  2.74
   7413.46    8.468  2.74
   7416.20    8.472  2.74
   7418.94    8.461  2.74
   7421.68    8.458  2.74
   7424.42    8.459  2.74
   7427.16    8.451  2.74
   7429.90    8.442  2.74
   7432.64    8.439  2.74
   7435.38    8.439  2.74
   7438.12    8.440  2.74
   7440.86    8.446  2.74
   7443.60    8.458  2.74
   7446.34    8.457  2.74
   7449.08    8.449  2.74
   7451.82    8.439  2.74
   7454.56    8.433  2.74
   7457.30    8.441  2.74
   7460.04    8.445  2.74
   7462.78    8.441  2.74
   7465.52    8.440  2.74
   7468.26    8.440  2.74
   7471.00    8.443  2.74
   7473.74    8.446  2.74
   7476.48    8.444  2.74
   7479.22    8.439  2.74
   7481.96    8.431  2.74
   7484.70    8.431  2.74
   7487.44    8.441  2.74
   7490.18    8.448  2.74
   7492.92    8.453  2.74
   7495.66    8.448  2.74
   7498.40    8.441  2.74
   7501.14    8.435  2.74
   7503.88    8.435  2.74
   7506.62    8.446  2.74
   7509.36    8.445  2.74
   7512.10    8.434  2.74
   7514.84    8.437  2.74
   7517.58    8.444  2.74
   7520.32    8.448  2.74
   7523.06    8.445  2.74
   7525.80    8.426  2.74
   7528.54    8.419  2.74
   7531.28    8.427  2.74
   7534.02    8.434  2.74
   7536.76    8.442  2.74
   7539.50    8.436  2.74
   7542.24    8.429  2.74
   7544.98    8.435  2.74
   7547.72    8.438  2.74
   7550.46    8.432  2.74
   7553.20    8.431  2.74
   7555.94    8.435  2.74
   7558.68    8.437  2.74
   7561.42    8.436  2.74
   7564.16    8.425  2.74
   7566.90    8.416  2.74
   7569.64    8.416  2.74
   7572.38    8.420  2.74
   7575.12    8.430  2.74
   7577.86    8.427  2.74
   7580.60    8.419  2.74
   7583.34    8.435  2.74
   7586.08    8.451  2.74
   7588.82    8.437  2.74
   7591.56    8.426  2.74
   7594.30    8.422  2.74
   7597.04    8.422  2.74
   7599.78    8.425  2.74
   7602.52    8.432  2.74
   7605.26    8.439  2.74
   7608.00    8.432  2.74
   7610.74    8.426  2.74
   7613.48    8.434  2.74
   7616.22    8.435  2.74
   7618.96    8.427  2.74
   7621.70    8.422  2.74
   7624.44    8.419  2.74
   7627.18    8.423  2.74
   7629.92    8.426  2.74
   7632.66    8.411  2.74
   7635.40    8.403  2.74
   7638.14    8.418  2.74
   7640.88    8.424  2.74
   7643.62    8.423  2.74
   7646.36    8.422  2.74
   7649.10    8.423  2.74
   7651.84    8.429  2.74
   7654.58    8.435  2.74
   7657.32    8.435  2.74
   7660.06    8.436  2.74
   7662.80    8.441  2.74
   7665.54    8.436  2.74
   7668.28    8.424  2.74
   7671.02    8.414  2.74
   7673.76    8.406  2.74
   7676.50    8.401  2.74
   7679.24    8.400  2.74
   7681.98    8.407  2.74
   7684.72    8.411  2.74
   7687.46    8.412  2.74
   7690.20    8.411  2.74
   7692.94    8.411  2.74
   7695.68    8.419  2.74
   7698.42    8.428  2.74
   7701.16    8.432  2.74
   7703.90    8.429  2.74
   7706.64    8.412  2.74
   7709.38    8.411  2.74
   7712.12    8.420  2.74
   7714.86    8.415  2.74
   7717.60    8.405  2.74
   7720.34    8.402  2.74
   7723.08    8.401  2.74
   7725.82    8.401  2.74
   7728.56    8.400  2.74
   7731.30    8.396  2.74
   7734.04    8.418  2.74
   7736.78    8.452  2.74
   7739.52    8.436  2.74
   7742.26    8.416  2.74
   7745.00    8.428  2.74
   7747.74    8.433  2.74
   7750.48    8.423  2.74
   7753.22    8.417  2.74
   7755.96    8.412  2.74
   7758.70    8.417  2.74
   7761.44    8.421  2.74
   7764.18    8.406  2.74
   7766.92    8.393  2.74
   7769.66    8.388  2.74
   7772.40    8.390  2.74
   7775.14    8.400  2.74
   7777.88    8.408  2.74
   7780.62    8.414  2.74
   7783.36    8.414  2.74
   7786.10    8.411  2.74
   7788.84    8.403  2.74
   7791.58    8.400  2.74
   7794.32    8.405  2.74
   7797.06    8.404  2.74
   7799.80    8.399  2.74
   7802.54    8.408  2.74
   7805.28    8.420  2.74
   7808.02    8.408  2.74
   7810.76    8.397  2.74
   7813.50    8.397  2.74
   7816.24    8.396  2.74
   7818.98    8.395  2.74
   7821.72    8.387  2.74
   7824.46    8.374  2.74
   7827.20    8.373  2.74
   7829.94    8.379  2.74
   7832.68    8.397  2.74
   7835.42    8.407  2.74
   7838.16    8.396  2.74
   7840.90    8.396  2.74
   7843.64    8.403  2.74
   7846.38    8.406  2.74
   7849.12    8.406  2.74
   7851.86    8.392  2.74
   7854.60    8.386  2.74
   7857.34    8.412  2.74
   7860.08    8.423  2.74
   7862.82    8.411  2.74
   7865.56    8.405  2.74
   7868.30    8.398  2.74
   7871.04    8.405  2.74
   7873.78    8.415  2.74
   7876.52    8.421  2.74
   7879.26    8.421  2.74
   7882.00    8.413  2.74
   7884.74    8.402  2.74
   7887.48    8.386  2.74
   7890.22    8.388  2.74
   7892.96    8.397  2.74
   7895.70    8.393  2.74
   7898.44    8.387  2.74
   7901.18    8.389  2.74
   7903.92    8.390  2.74
   7906.66    8.387  2.74
   7909.40    8.392  2.74
   7912.14    8.400  2.74
   7914.88    8.399  2.74
   7917.62    8.396  2.74
   7920.36    8.396  2.74
   7923.10    8.394  2.74
   7925.84    8.387  2.74
   7928.58    8.389  2.74
   7931.32    8.402  2.74
   7934.06    8.403  2.74
   7936.80    8.399  2.74
   7939.54    8.393  2.74
   7942.28    8.389  2.74
   7945.02    8.400  2.74
   7947.76    8.391  2.74
   7950.50    8.341  2.74
   7953.24    8.344  2.74
   7955.98    8.380  2.74
   7958.72    8.383  2.74
   7961.46    8.378  2.74
   7964.20    8.386  2.74
   7966.94    8.392  2.74
   7969.68    8.391  2.74
   7972.42    8.385  2.74
   7975.16    8.373  2.74
   7977.90    8.375  2.74
   7980.64    8.383  2.74
   7983.38    8.374  2.74
   7986.12    8.364  2.74
   7988.86    8.359  2.74
   7991.60    8.363  2.74
   7994.34    8.385  2.74
   7997.08    8.387  2.74
   7999.82    8.377  2.74
   8002.56    8.373  2.74
   8005.30    8.373  2.74
   8008.04    8.382  2.74
   8010.78    8.387  2.74
   8013.52    8.378  2.74
   8016.26    8.371  2.74
   8019.00    8.363  2.74
   8021.74    8.374  2.74
   8024.48    8.396  2.74
   8027.22    8.401  2.74
   8029.96    8.398  2.74
   8032.70    8.383  2.74
   8035.44    8.380  2.74
   8038.18    8.404  2.74
   8040.92    8.406  2.74
   8043.66    8.392  2.74
   8046.40    8.390  2.74
   8049.14    8.388  2.74
   8051.88    8.371  2.74
   8054.62    8.359  2.74
   8057.36    8.360  2.74
   8060.10    8.367  2.74
   8062.84    8.383  2.74
   8065.58    8.384  2.74
   8068.32    8.377  2.74
   8071.06    8.377  2.74
   8073.80    8.377  2.74
   8076.54    8.375  2.74
   8079.28    8.371  2.74
   8082.02    8.360  2.74
   8084.76    8.359  2.74
   8087.50    8.365  2.74
   8090.24    8.374  2.74
   8092.98    8.381  2.74
   8095.72    8.369  2.74
   8098.46    8.358  2.74
   8101.20    8.362  2.74
   8103.94    8.366  2.74
   8106.68    8.369  2.74
   8109.42    8.366  2.74
   8112.16    8.358  2.74
   8114.90    8.361  2.74
   8117.64    8.364  2.74
   8120.38    8.358  2.74
   8123.12    8.358  2.74
   8125.86    8.371  2.74
   8128.60    8.375  2.74
   8131.34    8.370  2.74
   8134.08    8.372  2.74
   8136.82    8.374  2.74
   8139.56    8.355  2.74
   8142.30    8.338  2.74
   8145.04    8.338  2.74
   8147.78    8.346  2.74
   8150.52    8.369  2.74
   8153.26    8.365  2.74
   8156.00    8.344  2.74
   8158.74    8.345  2.74
   8161.48    8.351  2.74
   8164.22    8.352  2.74
   8166.96    8.352  2.74
   8169.70    8.347  2.74
   8172.44    8.353  2.74
   8175.18    8.374  2.74
   8177.92    8.369  2.74
   8180.66    8.356  2.74
   8183.40    8.368  2.74
   8186.14    8.380  2.74
   8188.88    8.373  2.74
   8191.62    8.365  2.74
   8194.36    8.355  2.74
   8197.10    8.360  2.74
   8199.84    8.377  2.74
   8202.58    8.378  2.74
   8205.32    8.373  2.74
   8208.06    8.367  2.74
   8210.80    8.365  2.74
   8213.54    8.377  2.74
   8216.28    8.370  2.74
   8219.02    8.339  2.74
   8221.76    8.336  2.74
   8224.50    8.345  2.74
   8227.24    8.351  2.74
   8229.98    8.353  2.74
   8232.72    8.346  2.74
   8235.46    8.343  2.74
   8238.20    8.348  2.74
   8240.94    8.358  2.74
   8243.68    8.371  2.74
   8246.42    8.366  2.74
   8249.16    8.355  2.74
   8251.90    8.354  2.74
   8254.64    8.356  2.74
   8257.38    8.363  2.74
   8260.12    8.363  2.74
   8262.86    8.351  2.74
   8265.60    8.356  2.74
   8268.34    8.367  2.74
   8271.08    8.362  2.74
   8273.82    8.357  2.74
   8276.56    8.362  2.74
   8279.30    8.368  2.74
   8282.04    8.380  2.74
   8284.78    8.368  2.74
   8287.52    8.337  2.74
   8290.26    8.336  2.74
   8293.00    8.347  2.74
   8295.74    8.354  2.74
   8298.48    8.357  2.74
   8301.22    8.353  2.74
   8303.96    8.350  2.74
   8306.70    8.348  2.74
   8309.44    8.348  2.74
   8312.18    8.350  2.74
   8314.92    8.352  2.74
   8317.66    8.352  2.74
   8320.40    8.349  2.74
   8323.14    8.347  2.74
   8325.88    8.344  2.74
   8328.62    8.353  2.74
   8331.36    8.375  2.74
   8334.10    8.371  2.74
   8336.84    8.356  2.74
   8339.58    8.340  2.74
   8342.32    8.333  2.74
   8345.06    8.355  2.74
   8347.80    8.363  2.74
   8350.54    8.347  2.74
   8353.28    8.344  2.74
   8356.02    8.347  2.74
   8358.76    8.348  2.74
   8361.50    8.352  2.74
   8364.24    8.368  2.74
   8366.98    8.374  2.74
   8369.72    8.359  2.74
   8372.46    8.354  2.74
   8375.20    8.358  2.74
   8377.94    8.352  2.74
   8380.68    8.343  2.74
   8383.42    8.345  2.74
   8386.16    8.348  2.74
   8388.90    8.348  2.74
   8391.64    8.348  2.74
   8394.38    8.351  2.74
   8397.12    8.340  2.74
   8399.86    8.321  2.74
   8402.60    8.332  2.74
   8405.34    8.350  2.74
   8408.08    8.355  2.74
   8410.82    8.356  2.74
   8413.56    8.354  2.74
   8416.30    8.349  2.74
   8419.04    8.340  2.74
   8421.78    8.342  2.74
   8424.52    8.347  2.74
   8427.26    8.343  2.74
   8430.00    8.337  2.74
   8432.74    8.332  2.74
   8435.48    8.332  2.74
   8438.22    8.340  2.74
   8440.96    8.338  2.74
   8443.70    8.332  2.74
   8446.44    8.337  2.74
   8449.18    8.342  2.74
   8451.92    8.327  2.74
   8454.66    8.315  2.74
   8457.40    8.318  2.74
   8460.14    8.322  2.74
   8462.88    8.327  2.74
   8465.62    8.333  2.74
   8468.36    8.340  2.74
   8471.10    8.342  2.74
   8473.84    8.343  2.74
   8476.58    8.345  2.74
   8479.32    8.347  2.74
   8482.06    8.349  2.74
   8484.80    8.349  2.74
   8487.54    8.348  2.74
   8490.28    8.355  2.74
   8493.02    8.367  2.74
   8495.76    8.386  2.74
   8498.50    8.394  2.74
   8501.24    8.374  2.74
   8503.98    8.357  2.74
   8506.72    8.340  2.74
   8509.46    8.335  2.74
   8512.20    8.337  2.74
   8514.94    8.325  2.74
   8517.68    8.314  2.74
   8520.42    8.310  2.74
   8523.16    8.315  2.74
   8525.90    8.338  2.74
   8528.64    8.346  2.74
   8531.38    8.344  2.74
   8534.12    8.380  2.74
   8536.86    8.432  2.74
   8539.60    8.488  2.74
   8542.34    8.503  2.74
   8545.08    8.424  2.74
   8547.82    8.374  2.74
   8550.56    8.353  2.74
   8553.30    8.341  2.74
   8556.04    8.338  2.74
   8558.78    8.336  2.74
   8561.52    8.335  2.74
   8564.26    8.326  2.74
   8567.00    8.323  2.74
   8569.74    8.333  2.74
   8572.48    8.337  2.74
   8575.22    8.336  2.74
   8577.96    8.339  2.74
   8580.70    8.341  2.74
   8583.44    8.331  2.74
   8586.18    8.321  2.74
   8588.92    8.315  2.74
   8591.66    8.311  2.74
   8594.40    8.307  2.74
   8597.14    8.308  2.74
   8599.88    8.312  2.74
   8602.62    8.321  2.74
   8605.36    8.326  2.74
   8608.10    8.310  2.74
   8610.84    8.299  2.74
   8613.58    8.304  2.74
   8616.32    8.306  2.74
   8619.06    8.304  2.74
   8621.80    8.296  2.74
   8624.54    8.288  2.74
   8627.28    8.299  2.74
   8630.02    8.311  2.74
   8632.76    8.314  2.74
   8635.50    8.315  2.74
   8638.24    8.314  2.74
   8640.98    8.319  2.74
   8643.72    8.329  2.74
   8646.46    8.324  2.74
   8649.20    8.321  2.74
   8651.94    8.338  2.74
   8654.68    8.368  2.74
   8657.42    8.429  2.74
   8660.16    8.446  2.74
   8662.90    8.422  2.74
   8665.64    8.389  2.74
   8668.38    8.347  2.74
   8671.12    8.314  2.74
   8673.86    8.294  2.74
   8676.60    8.298  2.74
   8679.34    8.297  2.74
   8682.08    8.279  2.74
   8684.82    8.287  2.74
   8687.56    8.312  2.74
   8690.30    8.312  2.74
   8693.04    8.306  2.74
   8695.78    8.311  2.74
   8698.52    8.310  2.74
   8701.26    8.293  2.74
   8704.00    8.288  2.74
   8706.74    8.297  2.74
   8709.48    8.291  2.74
   8712.22    8.281  2.74
   8714.96    8.290  2.74
   8717.70    8.304  2.74
   8720.44    8.317  2.74
   8723.18    8.324  2.74
   8725.92    8.322  2.74
   8728.66    8.315  2.74
   8731.40    8.303  2.74
   8734.14    8.301  2.74
   8736.88    8.302  2.74
   8739.62    8.295  2.74
   8742.36    8.290  2.74
   8745.10    8.293  2.74
   8747.84    8.303  2.74
   8750.58    8.323  2.74
   8753.32    8.330  2.74
   8756.06    8.328  2.74
   8758.80    8.322  2.74
   8761.54    8.316  2.74
   8764.28    8.317  2.74
   8767.02    8.311  2.74
   8769.76    8.285  2.74
   8772.50    8.281  2.74
   8775.24    8.294  2.74
   8777.98    8.295  2.74
   8780.72    8.294  2.74
   8783.46    8.299  2.74
   8786.20    8.303  2.74
   8788.94    8.303  2.74
   8791.68    8.302  2.74
   8794.42    8.293  2.74
   8797.16    8.326  2.74
   8799.90    8.379  2.74
   8802.64    8.342  2.74
   8805.38    8.295  2.74
   8808.12    8.299  2.74
   8810.86    8.307  2.74
   8813.60    8.312  2.74
   8816.34    8.314  2.74
   8819.08    8.314  2.74
   8821.82    8.310  2.74
   8824.56    8.305  2.74
   8827.30    8.309  2.74
   8830.04    8.311  2.74
   8832.78    8.302  2.74
   8835.52    8.295  2.74
   8838.26    8.287  2.74
   8841.00    8.293  2.74
   8843.74    8.307  2.74
   8846.48    8.324  2.74
   8849.22    8.336  2.74
   8851.96    8.319  2.74
   8854.70    8.311  2.74
   8857.44    8.327  2.74
   8860.18    8.326  2.74
   8862.92    8.311  2.74
   8865.66    8.302  2.74
   8868.40    8.294  2.74
   8871.14    8.288  2.74
   8873.88    8.286  2.74
   8876.62    8.292  2.74
   8879.36    8.297  2.74
   8882.10    8.298  2.74
   8884.84    8.300  2.74
   8887.58    8.301  2.74
   8890.32    8.296  2.74
   8893.06    8.291  2.74
   8895.80    8.295  2.74
   8898.54    8.302  2.74
   8901.28    8.317  2.74
   8904.02    8.310  2.74
   8906.76    8.277  2.74
   8909.50    8.272  2.74
   8912.24    8.276  2.74
   8914.98    8.272  2.74
   8917.72    8.269  2.74
   8920.46    8.268  2.74
   8923.20    8.274  2.74
   8925.94    8.292  2.74
   8928.68    8.296  2.74
   8931.42    8.291  2.74
   8934.16    8.302  2.74
   8936.90    8.310  2.74
   8939.64    8.290  2.74
   8942.38    8.275  2.74
   8945.12    8.276  2.74
   8947.86    8.283  2.74
   8950.60    8.303  2.74
   8953.34    8.295  2.74
   8956.08    8.275  2.74
   8958.82    8.268  2.74
   8961.56    8.267  2.74
   8964.30    8.272  2.74
   8967.04    8.278  2.74
   8969.78    8.287  2.74
   8972.52    8.281  2.74
   8975.26    8.263  2.74
   8978.00    8.281  2.74
   8980.74    8.305  2.74
   8983.48    8.288  2.74
   8986.22    8.272  2.74
   8988.96    8.275  2.74
   8991.70    8.275  2.74
   8994.44    8.270  2.74
   8997.18    8.288  2.74
   8999.92    8.315  2.74
   9002.66    8.307  2.74
   9005.40    8.293  2.74
   9008.14    8.292  2.74
   9010.88    8.295  2.74
   9013.62    8.307  2.74
   9016.36    8.299  2.74
   9019.10    8.275  2.74
   9021.84    8.280  2.74
   9024.58    8.292  2.74
   9027.32    8.288  2.74
   9030.06    8.279  2.74
   9032.80    8.261  2.74
   9035.54    8.257  2.74
   9038.28    8.271  2.74
   9041.02    8.267  2.74
   9043.76    8.257  2.74
   9046.50    8.272  2.74
   9049.24    8.290  2.74
   9051.98    8.289  2.74
   9054.72    8.287  2.74
   9057.46    8.287  2.74
   9060.20    8.291  2.74
   9062.94    8.297  2.74
   9065.68    8.288  2.74
   9068.42    8.273  2.74
   9071.16    8.260  2.74
   9073.90    8.255  2.74
   9076.64    8.275  2.74
   9079.38    8.282  2.74
   9082.12    8.269  2.74
   9084.86    8.273  2.74
   9087.60    8.283  2.74
   9090.34    8.285  2.74
   9093.08    8.281  2.74
   9095.82    8.264  2.74
   9098.56    8.257  2.74
   9101.30    8.273  2.74
   9104.04    8.273  2.74
   9106.78    8.261  2.74
   9109.52    8.264  2.74
   9112.26    8.271  2.74
   9115.00    8.269  2.74
   9117.74    8.266  2.74
   9120.48    8.263  2.74
   9123.22    8.266  2.74
   9125.96    8.279  2.74
   9128.70    8.281  2.74
   9131.44    8.276  2.74
   9134.18    8.273  2.74
   9136.92    8.272  2.74
   9139.66    8.277  2.74
   9142.40    8.283  2.74
   9145.14    8.288  2.74
   9147.88    8.301  2.74
   9150.62    8.327  2.74
   9153.36    8.303  2.74
   9156.10    8.260  2.74
   9158.84    8.262  2.74
   9161.58    8.271  2.74
   9164.32    8.272  2.74
   9167.06    8.272  2.74
   9169.80    8.274  2.74
   9172.54    8.271  2.74
   9175.28    8.266  2.74
   9178.02    8.254  2.74
   9180.76    8.252  2.74
   9183.50    8.299  2.74
   9186.24    8.327  2.74
   9188.98    8.298  2.74
   9191.72    8.278  2.74
   9194.46    8.262  2.74
   9197.20    8.260  2.74
   9199.94    8.267  2.74
   9202.68    8.274  2.74
   9205.42    8.285  2.74
   9208.16    8.304  2.74
   9210.90    8.313  2.74
   9213.64    8.304  2.74
   9216.38    8.292  2.74
   9219.12    8.277  2.74
   9221.86    8.280  2.74
   9224.60    8.291  2.74
   9227.34    8.301  2.74
   9230.08    8.302  2.74
   9232.82    8.280  2.74
   9235.56    8.281  2.74
   9238.30    8.311  2.74
   9241.04    8.301  2.74
   9243.78    8.276  2.74
   9246.52    8.280  2.74
   9249.26    8.286  2.74
   9252.00    8.273  2.74
   9254.74    8.267  2.74
   9257.48    8.274  2.74
   9260.22    8.272  2.74
   9262.96    8.264  2.74
   9265.70    8.267  2.74
   9268.44    8.275  2.74
   9271.18    8.293  2.74
   9273.92    8.301  2.74
   9276.66    8.283  2.74
   9279.40    8.273  2.74
   9282.14    8.274  2.74
   9284.88    8.270  2.74
   9287.62    8.266  2.74
   9290.36    8.277  2.74
   9293.10    8.289  2.74
   9295.84    8.290  2.74
   9298.58    8.284  2.74
   9301.32    8.268  2.74
   9304.06    8.261  2.74
   9306.80    8.260  2.74
   9309.54    8.268  2.74
   9312.28    8.279  2.74
   9315.02    8.273  2.74
   9317.76    8.267  2.74
   9320.50    8.274  2.74
   9323.24    8.268  2.74
   9325.98    8.238  2.74
   9328.72    8.239  2.74
   9331.46    8.255  2.74
   9334.20    8.254  2.74
   9336.94    8.253  2.74
   9339.68    8.272  2.74
   9342.42    8.282  2.74
   9345.16    8.267  2.74
   9347.90    8.267  2.74
   9350.64    8.281  2.74
   9353.38    8.277  2.74
   9356.12    8.265  2.74
   9358.86    8.257  2.74
   9361.60    8.252  2.74
   9364.34    8.255  2.74
   9367.08    8.264  2.74
   9369.82    8.282  2.74
   9372.56    8.283  2.74
   9375.30    8.275  2.74
   9378.04    8.276  2.74
   9380.78    8.279  2.74
   9383.52    8.278  2.74
   9386.26    8.275  2.74
   9389.00    8.262  2.74
   9391.74    8.264  2.74
   9394.48    8.281  2.74
   9397.22    8.275  2.74
   9399.96    8.261  2.74
   9402.70    8.264  2.74
   9405.44    8.266  2.74
   9408.18    8.256  2.74
   9410.92    8.252  2.74
   9413.66    8.262  2.74
   9416.40    8.259  2.74
   9419.14    8.250  2.74
   9421.88    8.253  2.74
   9424.62    8.258  2.74
   9427.36    8.254  2.74
   9430.10    8.251  2.74
   9432.84    8.250  2.74
   9435.58    8.255  2.74
   9438.32    8.265  2.74
   9441.06    8.266  2.74
   9443.80    8.262  2.74
   9446.54    8.252  2.74
   9449.28    8.246  2.74
   9452.02    8.251  2.74
   9454.76    8.260  2.74
   9457.50    8.277  2.74
   9460.24    8.285  2.74
   9462.98    8.285  2.74
   9465.72    8.274  2.74
   9468.46    8.263  2.74
   9471.20    8.278  2.74
   9473.94    8.289  2.74
   9476.68    8.280  2.74
   9479.42    8.278  2.74
   9482.16    8.285  2.74
   9484.90    8.278  2.74
   9487.64    8.265  2.74
   9490.38    8.281  2.74
   9493.12    8.299  2.74
   9495.86    8.302  2.74
   9498.60    8.297  2.74
   9501.34    8.287  2.74
   9504.08    8.268  2.74
   9506.82    8.243  2.74
   9509.56    8.246  2.74
   9512.30    8.260  2.74
   9515.04    8.266  2.74
   9517.78    8.262  2.74
   9520.52    8.236  2.74
   9523.26    8.227  2.74
   9526.00    8.239  2.74
   9528.74    8.244  2.74
   9531.48    8.248  2.74
   9534.22    8.246  2.74
   9536.96    8.251  2.74
   9539.70    8.279  2.74
   9542.44    8.300  2.74
   9545.18    8.305  2.74
   9547.92    8.298  2.74
   9550.66    8.278  2.74
   9553.40    8.269  2.74
   9556.14    8.264  2.74
   9558.88    8.273  2.74
   9561.62    8.281  2.74
   9564.36    8.278  2.74
   9567.10    8.271  2.74
   9569.84    8.258  2.74
   9572.58    8.257  2.74
   9575.32    8.261  2.74
   9578.06    8.262  2.74
   9580.80    8.263  2.74
   9583.54    8.273  2.74
   9586.28    8.278  2.74
   9589.02    8.267  2.74
   9591.76    8.267  2.74
   9594.50    8.275  2.74
   9597.24    8.284  2.74
   9599.98    8.290  2.74
   9602.72    8.271  2.74
   9605.46    8.253  2.74
   9608.20    8.252  2.74
   9610.94    8.251  2.74
   9613.68    8.245  2.74
   9616.42    8.261  2.74
   9619.16    8.288  2.74
   9621.90    8.267  2.74
   9624.64    8.235  2.74
   9627.38    8.220  2.74
   9630.12    8.226  2.74
   9632.86    8.272  2.74
   9635.60    8.279  2.74
   9638.34    8.247  2.74
   9641.08    8.251  2.74
   9643.82    8.268  2.74
   9646.56    8.279  2.74
   9649.30    8.284  2.74
   9652.04    8.270  2.74
   9654.78    8.269  2.74
   9657.52    8.293  2.74
   9660.26    8.289  2.74
   9663.00    8.268  2.74
   9665.74    8.262  2.74
   9668.48    8.259  2.74
   9671.22    8.249  2.74
   9673.96    8.248  2.74
   9676.70    8.267  2.74
   9679.44    8.277  2.74
   9682.18    8.277  2.74
   9684.92    8.277  2.74
   9687.66    8.274  2.74
   9690.40    8.263  2.74
   9693.14    8.253  2.74
   9695.88    8.243  2.74
   9698.62    8.253  2.74
   9701.36    8.301  2.74
   9704.10    8.313  2.74
   9706.84    8.302  2.74
   9709.58    8.263  2.74
   9712.32    8.227  2.74
   9715.06    8.257  2.74
   9717.80    8.282  2.74
   9720.54    8.270  2.74
   9723.28    8.267  2.74
   9726.02    8.275  2.74
   9728.76    8.277  2.74
   9731.50    8.276  2.74
   9734.24    8.264  2.74
   9736.98    8.256  2.74
   9739.72    8.272  2.74
   9742.46    8.280  2.74
   9745.20    8.271  2.74
   9747.94    8.260  2.74
   9750.68    8.245  2.74
   9753.42    8.245  2.74
   9756.16    8.253  2.74
   9758.90    8.263  2.74
   9761.64    8.268  2.74
   9764.38    8.257  2.74
   9767.12    8.258  2.74
   9769.86    8.273  2.74
   9772.60    8.271  2.74
   9775.34    8.261  2.74
   9778.08    8.272  2.74
   9780.82    8.281  2.74
   9783.56    8.269  2.74
   9786.30    8.255  2.74
   9789.04    8.240  2.74
   9791.78    8.228  2.74
   9794.52    8.219  2.74
   9797.26    8.238  2.74
   9800.00    8.266  2.74
   9802.74    8.251  2.74
   9805.48    8.240  2.74
   9808.22    8.262  2.74
   9810.96    8.271  2.74
   9813.70    8.264  2.74
   9816.44    8.258  2.74
   9819.18    8.253  2.74
   9821.92    8.268  2.74
   9824.66    8.277  2.74
   9827.40    8.239  2.74
   9830.14    8.219  2.74
   9832.88    8.237  2.74
   9835.62    8.250  2.74
   9838.36    8.261  2.74
   9841.10    8.271  2.74
   9843.84    8.275  2.74
   9846.58    8.263  2.74
   9849.32    8.246  2.74
   9852.06    8.221  2.74
   9854.80    8.219  2.74
   9857.54    8.255  2.74
   9860.28    8.265  2.74
   9863.02    8.263  2.74
   9865.76    8.257  2.74
   9868.50    8.249  2.74
   9871.24    8.247  2.74
   9873.98    8.243  2.74
   9876.72    8.233  2.74
   9879.46    8.228  2.74
   9882.20    8.228  2.74
   9884.94    8.232  2.74
   9887.68    8.243  2.74
   9890.42    8.279  2.74
   9893.16    8.299  2.74
   9895.90    8.253  2.74
   9898.64    8.234  2.74
   9901.38    8.264  2.74
   9904.12    8.263  2.74
   9906.86    8.248  2.74
   9909.60    8.228  2.74
   9912.34    8.219  2.74
   9915.08    8.272  2.74
   9917.82    8.295  2.74
   9920.56    8.231  2.74
   9923.30    8.215  2.74
   9926.04    8.245  2.74
   9928.78    8.237  2.74
   9931.52    8.219  2.74
   9934.26    8.229  2.74
   9937.00    8.242  2.74
   9939.74    8.237  2.74
   9942.48    8.239  2.74
   9945.22    8.250  2.74
   9947.96    8.258  2.74
   9950.70    8.264  2.74
   9953.44    8.252  2.74
   9956.18    8.237  2.74
   9958.92    8.246  2.74
   9961.66    8.248  2.74
   9964.40    8.223  2.74
   9967.14    8.220  2.74
   9969.88    8.237  2.74
   9972.62    8.261  2.74
   9975.36    8.289  2.74
   9978.10    8.281  2.74
   9980.84    8.268  2.74
   9983.58    8.274  2.74
   9986.32    8.270  2.74
   9989.06    8.253  2.74
   9991.80    8.233  2.74
   9994.54    8.208  2.74
   9997.28    8.208  2.74
  10000.02    8.213  2.74
  10002.76    8.200  2.74
  10005.50    8.195  2.74
  10008.24    8.214  2.74
  10010.98    8.221  2.74
  10013.72    8.206  2.74
  10016.46    8.232  2.74
  10019.20    8.277  2.74
  10021.94    8.286  2.74
  10024.68    8.288  2.74
  10027.42    8.304  2.74
  10030.16    8.308  2.74
  10032.90    8.299  2.74
  10035.64    8.270  2.74
  10038.38    8.226  2.74
  10041.12    8.213  2.74
  10043.86    8.219  2.74
  10046.60    8.255  2.74
  10049.34    8.281  2.74
  10052.08    8.262  2.74
  10054.82    8.249  2.74
  10057.56    8.245  2.74
  10060.30    8.232  2.74
  10063.04    8.218  2.74
  10065.78    8.231  2.74
  10068.52    8.253  2.74
  10071.26    8.278  2.74
  10074.00    8.282  2.74
  10076.74    8.242  2.74
  10079.48    8.232  2.74
  10082.22    8.246  2.74
  10084.96    8.235  2.74
  10087.70    8.220  2.74
  10090.44    8.237  2.74
  10093.18    8.254  2.74
  10095.92    8.254  2.74
  10098.66    8.241  2.74
  10101.40    8.204  2.74
  10104.14    8.220  2.74
  10106.88    8.266  2.74
  10109.62    8.263  2.74
  10112.36    8.242  2.74
  10115.10    8.207  2.74
  10117.84    8.203  2.74
  10120.58    8.276  2.74
  10123.32    8.285  2.74
  10126.06    8.232  2.74
  10128.80    8.238  2.74
  10131.54    8.262  2.74
  10134.28    8.255  2.74
  10137.02    8.250  2.74
  10139.76    8.266  2.74
  10142.50    8.266  2.74
  10145.24    8.235  2.74
  10147.98    8.250  2.74
  10150.72    8.291  2.74
  10153.46    8.280  2.74
  10156.20    8.255  2.74
  10158.94    8.246  2.74
  10161.68    8.243  2.74
  10164.42    8.252  2.74
  10167.16    8.254  2.74
  10169.90    8.248  2.74
  10172.64    8.263  2.74
  10175.38    8.282  2.74
  10178.12    8.241  2.74
  10180.86    8.212  2.74
  10183.60    8.259  2.74
  10186.34    8.275  2.74
  10189.08    8.111  2.74
  10191.82    8.543  2.74
  10194.56   12.047  2.74
  10197.30-NaN       2.74
  10200.04Inf        2.74
  10202.78Inf        2.74
  10205.52Inf        2.74
